SpectraSuite Data File
++++++++++++++++++++++++++++++++++++
Date: Thu Oct 13 11:16:26 CDT 2011
User: Helimak
Dark Spectrum Present: No
Reference Spectrum Present: No
Number of Sampled Component Spectra: 1
Spectrometers: USB2G37154
Integration Time (usec): 20000 (USB2G37154)
Spectra Averaged: 1 (USB2G37154)
Boxcar Smoothing: 0 (USB2G37154)
Correct for Electrical Dark: No (USB2G37154)
Strobe/Lamp Enabled: No (USB2G37154)
Correct for Detector Non-linearity: No (USB2G37154)
Correct for Stray Light: No (USB2G37154)
Number of Pixels in Processed Spectrum: 651
>>>>>Begin Processed Spectral Data<<<<<
350.00	207.90
351.00	208.81
352.00	204.85
353.00	207.51
354.00	205.75
355.00	207.07
356.00	202.51
357.00	211.21
358.00	207.81
359.00	212.05
360.00	207.85
361.00	209.17
362.00	214.88
363.00	210.70
364.00	209.09
365.00	207.86
366.00	209.93
367.00	215.89
368.00	210.55
369.00	213.48
370.00	211.02
371.00	213.80
372.00	212.47
373.00	211.23
374.00	214.01
375.00	215.47
376.00	214.48
377.00	216.22
378.00	219.10
379.00	219.25
380.00	220.61
381.00	220.98
382.00	220.44
383.00	225.16
384.00	222.60
385.00	225.02
386.00	234.02
387.00	227.94
388.00	229.23
389.00	229.91
390.00	232.29
391.00	233.65
392.00	236.24
393.00	236.44
394.00	238.05
395.00	242.06
396.00	248.05
397.00	237.73
398.00	246.64
399.00	248.33
400.00	251.17
401.00	257.30
402.00	261.36
403.00	268.69
404.00	268.20
405.00	269.57
406.00	278.01
407.00	277.56
408.00	281.80
409.00	277.27
410.00	285.37
411.00	293.27
412.00	284.14
413.00	290.63
414.00	290.37
415.00	297.08
416.00	297.98
417.00	284.79
418.00	302.64
419.00	311.24
420.00	313.04
421.00	316.56
422.00	328.35
423.00	334.96
424.00	340.40
425.00	347.79
426.00	355.93
427.00	369.76
428.00	371.83
429.00	383.31
430.00	380.91
431.00	388.09
432.00	389.40
433.00	395.45
434.00	396.08
435.00	408.98
436.00	404.89
437.00	409.44
438.00	404.53
439.00	414.54
440.00	423.58
441.00	418.12
442.00	424.68
443.00	434.17
444.00	436.68
445.00	436.86
446.00	443.89
447.00	458.99
448.00	473.20
449.00	482.85
450.00	486.51
451.00	508.68
452.00	530.07
453.00	548.09
454.00	546.80
455.00	570.23
456.00	587.79
457.00	601.43
458.00	609.67
459.00	611.75
460.00	618.31
461.00	624.37
462.00	636.74
463.00	628.62
464.00	631.93
465.00	629.73
466.00	645.86
467.00	630.92
468.00	651.58
469.00	654.00
470.00	659.22
471.00	665.70
472.00	671.78
473.00	680.77
474.00	716.03
475.00	732.69
476.00	746.92
477.00	767.11
478.00	795.52
479.00	821.23
480.00	844.42
481.00	877.59
482.00	898.49
483.00	939.30
484.00	971.37
485.00	1030.43
486.00	1047.59
487.00	1092.82
488.00	1138.78
489.00	1193.47
490.00	1221.85
491.00	1256.89
492.00	1309.92
493.00	1336.37
494.00	1359.35
495.00	1374.50
496.00	1405.23
497.00	1420.07
498.00	1440.63
499.00	1448.70
500.00	1460.04
501.00	1454.08
502.00	1466.02
503.00	1472.60
504.00	1469.00
505.00	1481.96
506.00	1507.58
507.00	1515.84
508.00	1509.61
509.00	1536.00
510.00	1550.62
511.00	1565.89
512.00	1560.45
513.00	1591.24
514.00	1628.14
515.00	1618.05
516.00	1661.65
517.00	1667.78
518.00	1707.64
519.00	1748.02
520.00	1770.16
521.00	1831.51
522.00	1847.38
523.00	1874.17
524.00	1909.91
525.00	1991.07
526.00	2014.19
527.00	2095.29
528.00	2116.63
529.00	2148.09
530.00	2227.07
531.00	2290.58
532.00	2341.45
533.00	2393.80
534.00	2430.12
535.00	2476.94
536.00	2511.82
537.00	2523.59
538.00	2569.13
539.00	2582.49
540.00	2609.39
541.00	2639.36
542.00	2644.06
543.00	2674.76
544.00	2704.06
545.00	2657.38
546.00	2678.78
547.00	2654.50
548.00	2689.69
549.00	2692.00
550.00	2678.88
551.00	2701.91
552.00	2688.71
553.00	2689.16
554.00	2701.52
555.00	2716.50
556.00	2708.34
557.00	2766.58
558.00	2751.01
559.00	2769.67
560.00	2803.73
561.00	2837.66
562.00	2851.26
563.00	2879.08
564.00	2894.66
565.00	2948.97
566.00	2968.31
567.00	3014.27
568.00	3017.10
569.00	3052.07
570.00	3094.17
571.00	3143.71
572.00	3144.21
573.00	3231.81
574.00	3249.81
575.00	3263.17
576.00	3346.26
577.00	3351.24
578.00	3414.06
579.00	3456.29
580.00	3462.08
581.00	3501.03
582.00	3517.29
583.00	3539.72
584.00	3552.98
585.00	3550.05
586.00	3560.69
587.00	3603.98
588.00	3611.05
589.00	3606.40
590.00	3606.73
591.00	3623.40
592.00	3627.08
593.00	3611.88
594.00	3614.92
595.00	3643.96
596.00	3591.42
597.00	3552.96
598.00	3577.88
599.00	3594.81
600.00	3580.94
601.00	3566.07
602.00	3575.50
603.00	3577.30
604.00	3574.97
605.00	3583.25
606.00	3563.23
607.00	3564.85
608.00	3566.88
609.00	3583.20
610.00	3569.58
611.00	3574.65
612.00	3590.61
613.00	3595.56
614.00	3619.43
615.00	3620.96
616.00	3645.76
617.00	3656.06
618.00	3671.58
619.00	3682.05
620.00	3693.20
621.00	3729.51
622.00	3741.29
623.00	3727.24
624.00	3782.48
625.00	3755.00
626.00	3791.53
627.00	3840.46
628.00	3844.47
629.00	3850.44
630.00	3868.37
631.00	3886.44
632.00	3907.62
633.00	3854.45
634.00	3910.74
635.00	3905.50
636.00	3945.37
637.00	3915.04
638.00	3923.78
639.00	3925.44
640.00	3927.72
641.00	3923.08
642.00	3883.88
643.00	3894.56
644.00	3843.52
645.00	3845.41
646.00	3807.42
647.00	3782.65
648.00	3770.39
649.00	3747.97
650.00	3743.16
651.00	3728.38
652.00	3681.23
653.00	3622.38
654.00	3598.57
655.00	3582.44
656.00	3576.72
657.00	3572.61
658.00	3539.98
659.00	3521.52
660.00	3527.16
661.00	3483.76
662.00	3472.07
663.00	3451.12
664.00	3411.49
665.00	3384.48
666.00	3400.19
667.00	3367.14
668.00	3335.34
669.00	3313.33
670.00	3324.75
671.00	3333.14
672.00	3299.62
673.00	3299.99
674.00	3269.70
675.00	3272.79
676.00	3235.03
677.00	3244.12
678.00	3285.71
679.00	3254.99
680.00	3263.26
681.00	3255.19
682.00	3263.29
683.00	3240.45
684.00	3244.38
685.00	3204.12
686.00	3232.44
687.00	3245.93
688.00	3230.58
689.00	3264.04
690.00	3265.09
691.00	3255.60
692.00	3224.91
693.00	3275.04
694.00	3294.60
695.00	3308.63
696.00	3307.00
697.00	3290.93
698.00	3305.02
699.00	3294.92
700.00	3299.37
701.00	3293.83
702.00	3271.23
703.00	3262.35
704.00	3235.26
705.00	3274.05
706.00	3205.45
707.00	3179.45
708.00	3200.06
709.00	3218.76
710.00	3206.76
711.00	3166.73
712.00	3143.17
713.00	3151.05
714.00	3080.36
715.00	3071.39
716.00	3035.91
717.00	3029.57
718.00	2965.44
719.00	2942.14
720.00	2904.12
721.00	2876.34
722.00	2822.76
723.00	2808.28
724.00	2766.69
725.00	2750.53
726.00	2715.55
727.00	2648.32
728.00	2663.99
729.00	2656.36
730.00	2648.41
731.00	2583.22
732.00	2600.67
733.00	2573.16
734.00	2532.77
735.00	2543.89
736.00	2512.75
737.00	2466.94
738.00	2466.45
739.00	2429.95
740.00	2427.05
741.00	2393.63
742.00	2343.89
743.00	2352.81
744.00	2350.10
745.00	2274.66
746.00	2262.64
747.00	2249.42
748.00	2248.77
749.00	2218.19
750.00	2194.51
751.00	2191.61
752.00	2171.72
753.00	2183.89
754.00	2168.35
755.00	2142.00
756.00	2104.08
757.00	2084.12
758.00	2090.49
759.00	2108.94
760.00	2051.11
761.00	2039.33
762.00	2039.48
763.00	1998.66
764.00	1967.92
765.00	1981.88
766.00	1990.03
767.00	1955.14
768.00	1917.81
769.00	1951.32
770.00	1939.04
771.00	1928.35
772.00	1919.59
773.00	1901.65
774.00	1876.61
775.00	1879.97
776.00	1877.79
777.00	1873.87
778.00	1816.86
779.00	1818.28
780.00	1821.39
781.00	1810.93
782.00	1802.26
783.00	1805.03
784.00	1813.90
785.00	1808.45
786.00	1821.05
787.00	1834.07
788.00	1840.22
789.00	1841.80
790.00	1851.39
791.00	1817.46
792.00	1847.99
793.00	1860.50
794.00	1866.27
795.00	1879.61
796.00	1861.93
797.00	1862.39
798.00	1890.20
799.00	1880.64
800.00	1862.79
801.00	1861.59
802.00	1848.94
803.00	1852.78
804.00	1827.77
805.00	1821.62
806.00	1810.75
807.00	1821.72
808.00	1762.62
809.00	1775.42
810.00	1777.95
811.00	1742.92
812.00	1723.52
813.00	1695.74
814.00	1643.49
815.00	1662.37
816.00	1643.71
817.00	1597.93
818.00	1608.84
819.00	1571.99
820.00	1547.62
821.00	1538.62
822.00	1519.16
823.00	1524.32
824.00	1482.58
825.00	1461.26
826.00	1438.23
827.00	1408.36
828.00	1403.38
829.00	1383.10
830.00	1339.33
831.00	1323.99
832.00	1324.44
833.00	1297.70
834.00	1285.80
835.00	1274.91
836.00	1265.21
837.00	1240.35
838.00	1219.27
839.00	1214.87
840.00	1190.31
841.00	1165.37
842.00	1157.77
843.00	1135.52
844.00	1109.03
845.00	1119.63
846.00	1088.63
847.00	1068.25
848.00	1069.72
849.00	1064.40
850.00	1046.54
851.00	1031.82
852.00	1019.01
853.00	997.47
854.00	979.86
855.00	959.94
856.00	953.65
857.00	950.53
858.00	933.85
859.00	943.53
860.00	924.41
861.00	909.64
862.00	896.01
863.00	883.38
864.00	876.62
865.00	868.57
866.00	861.02
867.00	870.76
868.00	836.05
869.00	828.28
870.00	827.83
871.00	804.37
872.00	799.52
873.00	791.15
874.00	767.84
875.00	779.91
876.00	752.28
877.00	753.73
878.00	736.45
879.00	734.67
880.00	714.00
881.00	724.25
882.00	717.54
883.00	700.59
884.00	703.00
885.00	691.54
886.00	691.00
887.00	689.47
888.00	669.86
889.00	658.98
890.00	674.04
891.00	664.95
892.00	652.75
893.00	642.38
894.00	642.41
895.00	652.09
896.00	645.48
897.00	639.59
898.00	645.84
899.00	626.77
900.00	640.91
901.00	637.17
902.00	641.55
903.00	651.61
904.00	642.79
905.00	650.07
906.00	635.12
907.00	635.74
908.00	638.72
909.00	635.57
910.00	637.85
911.00	630.71
912.00	633.98
913.00	633.99
914.00	633.43
915.00	625.34
916.00	622.80
917.00	615.23
918.00	614.84
919.00	611.67
920.00	593.87
921.00	598.04
922.00	584.70
923.00	578.48
924.00	570.93
925.00	555.23
926.00	537.08
927.00	541.30
928.00	528.23
929.00	532.26
930.00	506.52
931.00	510.95
932.00	493.87
933.00	485.79
934.00	471.61
935.00	457.37
936.00	448.01
937.00	419.67
938.00	408.25
939.00	394.26
940.00	370.29
941.00	357.71
942.00	340.05
943.00	331.60
944.00	325.28
945.00	313.78
946.00	307.43
947.00	305.07
948.00	310.97
949.00	308.89
950.00	306.59
951.00	307.46
952.00	312.99
953.00	309.00
954.00	317.87
955.00	310.16
956.00	316.27
957.00	313.85
958.00	311.95
959.00	314.01
960.00	314.14
961.00	308.76
962.00	311.10
963.00	312.50
964.00	315.43
965.00	306.48
966.00	312.19
967.00	306.50
968.00	302.00
969.00	300.79
970.00	305.40
971.00	294.65
972.00	301.28
973.00	297.46
974.00	292.77
975.00	286.51
976.00	285.93
977.00	283.76
978.00	284.90
979.00	280.16
980.00	278.50
981.00	274.23
982.00	276.58
983.00	275.31
984.00	270.80
985.00	264.87
986.00	266.35
987.00	259.67
988.00	262.87
989.00	265.20
990.00	252.86
991.00	253.34
992.00	248.39
993.00	252.80
994.00	253.42
995.00	248.17
996.00	247.69
997.00	249.79
998.00	245.72
999.00	243.17
1000.00	239.09
>>>>>End Processed Spectral Data<<<<<
