SpectraSuite Data File
++++++++++++++++++++++++++++++++++++
Date: Thu Oct 13 11:31:38 CDT 2011
User: Helimak
Dark Spectrum Present: No
Reference Spectrum Present: No
Number of Sampled Component Spectra: 1
Spectrometers: USB2G37154
Integration Time (usec): 20000 (USB2G37154)
Spectra Averaged: 1 (USB2G37154)
Boxcar Smoothing: 0 (USB2G37154)
Correct for Electrical Dark: No (USB2G37154)
Strobe/Lamp Enabled: No (USB2G37154)
Correct for Detector Non-linearity: No (USB2G37154)
Correct for Stray Light: No (USB2G37154)
Number of Pixels in Processed Spectrum: 651
>>>>>Begin Processed Spectral Data<<<<<
350.00	201.88
351.00	200.43
352.00	204.25
353.00	205.76
354.00	200.46
355.00	200.12
356.00	200.74
357.00	199.40
358.00	200.41
359.00	202.90
360.00	203.03
361.00	203.46
362.00	206.74
363.00	204.86
364.00	201.97
365.00	205.69
366.00	207.62
367.00	202.94
368.00	204.66
369.00	206.17
370.00	205.00
371.00	203.88
372.00	202.71
373.00	206.05
374.00	206.57
375.00	208.50
376.00	209.71
377.00	208.02
378.00	207.56
379.00	210.27
380.00	206.62
381.00	208.90
382.00	209.63
383.00	207.79
384.00	211.38
385.00	209.53
386.00	204.96
387.00	210.41
388.00	210.51
389.00	211.08
390.00	209.52
391.00	212.34
392.00	212.20
393.00	212.68
394.00	210.23
395.00	214.04
396.00	208.98
397.00	214.69
398.00	212.37
399.00	215.65
400.00	216.10
401.00	216.26
402.00	213.29
403.00	220.29
404.00	219.67
405.00	219.51
406.00	225.98
407.00	225.53
408.00	221.11
409.00	223.30
410.00	222.12
411.00	221.07
412.00	222.11
413.00	224.84
414.00	219.76
415.00	225.26
416.00	224.47
417.00	225.64
418.00	223.71
419.00	226.87
420.00	226.03
421.00	233.82
422.00	230.87
423.00	231.06
424.00	231.97
425.00	235.49
426.00	234.45
427.00	239.91
428.00	241.96
429.00	241.52
430.00	244.45
431.00	238.15
432.00	244.15
433.00	245.97
434.00	245.04
435.00	245.51
436.00	241.70
437.00	243.18
438.00	239.24
439.00	252.59
440.00	246.96
441.00	242.01
442.00	237.36
443.00	252.39
444.00	247.48
445.00	248.26
446.00	251.99
447.00	252.14
448.00	254.87
449.00	251.13
450.00	258.35
451.00	259.59
452.00	259.40
453.00	261.15
454.00	265.61
455.00	271.72
456.00	278.42
457.00	273.15
458.00	270.60
459.00	278.84
460.00	274.97
461.00	278.62
462.00	279.14
463.00	277.87
464.00	278.36
465.00	281.45
466.00	280.49
467.00	272.98
468.00	281.79
469.00	285.77
470.00	278.05
471.00	281.26
472.00	278.67
473.00	283.81
474.00	282.99
475.00	283.84
476.00	291.37
477.00	295.52
478.00	302.16
479.00	302.54
480.00	311.51
481.00	310.73
482.00	318.51
483.00	318.26
484.00	323.89
485.00	332.29
486.00	337.79
487.00	338.29
488.00	349.70
489.00	356.81
490.00	352.33
491.00	367.07
492.00	363.74
493.00	369.63
494.00	375.33
495.00	378.16
496.00	380.63
497.00	384.20
498.00	374.07
499.00	382.10
500.00	385.25
501.00	382.79
502.00	384.00
503.00	388.05
504.00	391.49
505.00	384.81
506.00	381.61
507.00	388.76
508.00	388.60
509.00	391.27
510.00	382.87
511.00	385.99
512.00	376.65
513.00	391.69
514.00	396.80
515.00	397.66
516.00	406.03
517.00	402.69
518.00	405.19
519.00	409.60
520.00	414.25
521.00	414.62
522.00	411.78
523.00	427.58
524.00	427.52
525.00	432.19
526.00	433.09
527.00	444.87
528.00	448.30
529.00	455.79
530.00	465.28
531.00	469.32
532.00	467.40
533.00	486.52
534.00	478.26
535.00	481.32
536.00	485.22
537.00	490.56
538.00	500.59
539.00	492.76
540.00	507.82
541.00	502.22
542.00	495.51
543.00	503.02
544.00	503.62
545.00	498.62
546.00	503.84
547.00	501.29
548.00	489.88
549.00	485.29
550.00	502.06
551.00	505.93
552.00	497.96
553.00	484.51
554.00	495.99
555.00	493.46
556.00	487.58
557.00	497.96
558.00	509.65
559.00	499.93
560.00	507.66
561.00	509.94
562.00	513.28
563.00	504.61
564.00	510.06
565.00	513.94
566.00	518.61
567.00	517.94
568.00	520.66
569.00	525.30
570.00	536.88
571.00	534.16
572.00	533.11
573.00	539.14
574.00	538.91
575.00	550.49
576.00	565.15
577.00	562.16
578.00	558.50
579.00	559.57
580.00	572.65
581.00	580.71
582.00	571.77
583.00	580.04
584.00	587.19
585.00	573.91
586.00	579.14
587.00	580.86
588.00	584.29
589.00	587.44
590.00	574.82
591.00	573.53
592.00	588.37
593.00	583.76
594.00	582.95
595.00	568.26
596.00	576.08
597.00	574.10
598.00	576.92
599.00	570.58
600.00	577.52
601.00	573.19
602.00	581.09
603.00	569.24
604.00	565.23
605.00	577.86
606.00	582.34
607.00	571.65
608.00	580.16
609.00	573.62
610.00	572.96
611.00	577.67
612.00	581.45
613.00	580.15
614.00	586.81
615.00	583.47
616.00	580.96
617.00	584.03
618.00	587.66
619.00	588.55
620.00	587.50
621.00	593.19
622.00	595.47
623.00	582.53
624.00	591.14
625.00	603.31
626.00	608.16
627.00	612.34
628.00	604.06
629.00	616.15
630.00	608.19
631.00	615.72
632.00	616.58
633.00	617.73
634.00	622.86
635.00	620.91
636.00	632.72
637.00	625.91
638.00	629.41
639.00	628.96
640.00	626.16
641.00	619.42
642.00	620.84
643.00	623.22
644.00	626.76
645.00	613.09
646.00	610.01
647.00	611.39
648.00	609.40
649.00	609.12
650.00	601.37
651.00	607.93
652.00	607.08
653.00	609.65
654.00	596.80
655.00	587.15
656.00	603.11
657.00	600.83
658.00	573.00
659.00	580.65
660.00	584.61
661.00	588.00
662.00	582.12
663.00	576.26
664.00	575.06
665.00	565.35
666.00	575.45
667.00	563.36
668.00	568.38
669.00	569.41
670.00	564.78
671.00	559.23
672.00	578.86
673.00	569.98
674.00	567.86
675.00	571.74
676.00	575.48
677.00	573.73
678.00	563.01
679.00	568.16
680.00	570.40
681.00	560.54
682.00	568.84
683.00	565.08
684.00	568.36
685.00	574.21
686.00	563.89
687.00	572.06
688.00	578.28
689.00	569.60
690.00	573.55
691.00	573.97
692.00	577.98
693.00	578.69
694.00	588.03
695.00	588.87
696.00	580.00
697.00	591.85
698.00	586.54
699.00	584.13
700.00	582.63
701.00	594.59
702.00	583.29
703.00	587.64
704.00	588.72
705.00	586.94
706.00	593.33
707.00	589.99
708.00	592.34
709.00	597.70
710.00	591.29
711.00	587.49
712.00	581.78
713.00	586.08
714.00	582.51
715.00	575.78
716.00	570.69
717.00	569.74
718.00	562.32
719.00	566.69
720.00	560.50
721.00	564.85
722.00	554.00
723.00	553.20
724.00	549.31
725.00	548.95
726.00	543.58
727.00	543.25
728.00	535.47
729.00	535.09
730.00	527.90
731.00	534.38
732.00	525.00
733.00	537.48
734.00	531.50
735.00	523.51
736.00	520.25
737.00	513.28
738.00	517.63
739.00	521.41
740.00	519.27
741.00	513.30
742.00	514.92
743.00	518.05
744.00	511.77
745.00	506.84
746.00	505.82
747.00	512.42
748.00	516.47
749.00	504.59
750.00	511.83
751.00	502.06
752.00	506.67
753.00	508.26
754.00	501.46
755.00	506.45
756.00	504.12
757.00	505.16
758.00	505.44
759.00	502.34
760.00	503.93
761.00	504.51
762.00	516.27
763.00	501.46
764.00	502.99
765.00	507.02
766.00	507.33
767.00	513.76
768.00	509.37
769.00	505.08
770.00	501.62
771.00	511.01
772.00	505.02
773.00	507.84
774.00	507.10
775.00	502.73
776.00	507.56
777.00	518.14
778.00	512.01
779.00	518.00
780.00	498.74
781.00	515.65
782.00	514.47
783.00	512.44
784.00	516.11
785.00	530.75
786.00	531.59
787.00	535.15
788.00	541.30
789.00	548.04
790.00	546.15
791.00	542.73
792.00	557.47
793.00	553.81
794.00	559.90
795.00	568.67
796.00	564.16
797.00	570.20
798.00	576.08
799.00	578.04
800.00	586.82
801.00	587.75
802.00	584.04
803.00	590.52
804.00	587.21
805.00	589.87
806.00	577.38
807.00	583.72
808.00	586.93
809.00	584.65
810.00	590.63
811.00	577.40
812.00	575.32
813.00	576.48
814.00	575.14
815.00	566.30
816.00	569.27
817.00	568.02
818.00	570.37
819.00	575.00
820.00	557.19
821.00	566.78
822.00	557.82
823.00	558.52
824.00	555.03
825.00	548.44
826.00	549.02
827.00	552.76
828.00	530.78
829.00	536.39
830.00	529.25
831.00	524.16
832.00	526.14
833.00	519.24
834.00	517.15
835.00	518.07
836.00	515.40
837.00	515.54
838.00	512.18
839.00	506.06
840.00	509.41
841.00	492.59
842.00	496.59
843.00	503.23
844.00	494.12
845.00	496.11
846.00	493.36
847.00	484.02
848.00	498.97
849.00	484.13
850.00	491.59
851.00	484.05
852.00	478.37
853.00	482.19
854.00	471.64
855.00	467.00
856.00	459.68
857.00	461.11
858.00	461.74
859.00	460.77
860.00	461.62
861.00	465.84
862.00	464.80
863.00	457.21
864.00	458.26
865.00	458.67
866.00	454.53
867.00	455.99
868.00	454.04
869.00	445.62
870.00	442.21
871.00	443.22
872.00	442.86
873.00	447.26
874.00	433.28
875.00	431.08
876.00	431.36
877.00	431.22
878.00	419.16
879.00	423.26
880.00	430.91
881.00	421.82
882.00	418.01
883.00	421.22
884.00	416.01
885.00	419.01
886.00	418.21
887.00	419.65
888.00	422.44
889.00	410.31
890.00	413.65
891.00	419.62
892.00	424.75
893.00	415.67
894.00	420.87
895.00	418.53
896.00	416.23
897.00	423.98
898.00	433.14
899.00	422.01
900.00	424.24
901.00	421.87
902.00	424.73
903.00	436.64
904.00	427.62
905.00	429.04
906.00	434.16
907.00	439.32
908.00	427.93
909.00	449.56
910.00	429.99
911.00	444.14
912.00	442.66
913.00	436.72
914.00	444.05
915.00	436.56
916.00	446.06
917.00	439.97
918.00	438.38
919.00	436.83
920.00	427.44
921.00	431.15
922.00	429.07
923.00	421.31
924.00	431.70
925.00	420.59
926.00	412.99
927.00	417.71
928.00	413.17
929.00	398.92
930.00	402.34
931.00	391.73
932.00	393.18
933.00	388.32
934.00	376.16
935.00	373.91
936.00	359.35
937.00	348.83
938.00	336.75
939.00	319.66
940.00	306.58
941.00	303.52
942.00	288.17
943.00	286.23
944.00	285.19
945.00	282.59
946.00	278.84
947.00	274.19
948.00	269.11
949.00	270.26
950.00	277.63
951.00	280.06
952.00	282.13
953.00	279.96
954.00	281.13
955.00	281.90
956.00	279.54
957.00	292.51
958.00	286.16
959.00	282.02
960.00	286.07
961.00	283.12
962.00	282.19
963.00	287.43
964.00	286.82
965.00	283.08
966.00	285.02
967.00	281.42
968.00	283.99
969.00	280.09
970.00	274.54
971.00	281.33
972.00	273.81
973.00	272.50
974.00	274.31
975.00	269.69
976.00	273.13
977.00	272.28
978.00	265.48
979.00	263.25
980.00	264.66
981.00	266.75
982.00	264.64
983.00	269.07
984.00	252.03
985.00	259.90
986.00	257.25
987.00	249.39
988.00	247.35
989.00	249.98
990.00	246.16
991.00	246.51
992.00	244.72
993.00	240.37
994.00	239.48
995.00	236.75
996.00	236.96
997.00	230.64
998.00	233.50
999.00	238.41
1000.00	240.71
>>>>>End Processed Spectral Data<<<<<
