SpectraSuite Data File
++++++++++++++++++++++++++++++++++++
Date: Thu Oct 13 11:16:25 CDT 2011
User: Helimak
Dark Spectrum Present: No
Reference Spectrum Present: No
Number of Sampled Component Spectra: 1
Spectrometers: USB2G37154
Integration Time (usec): 20000 (USB2G37154)
Spectra Averaged: 1 (USB2G37154)
Boxcar Smoothing: 0 (USB2G37154)
Correct for Electrical Dark: No (USB2G37154)
Strobe/Lamp Enabled: No (USB2G37154)
Correct for Detector Non-linearity: No (USB2G37154)
Correct for Stray Light: No (USB2G37154)
Number of Pixels in Processed Spectrum: 651
>>>>>Begin Processed Spectral Data<<<<<
350.00	206.87
351.00	204.25
352.00	210.52
353.00	210.75
354.00	207.20
355.00	211.44
356.00	205.78
357.00	209.94
358.00	210.19
359.00	208.74
360.00	210.45
361.00	210.78
362.00	211.16
363.00	212.35
364.00	211.16
365.00	211.68
366.00	212.19
367.00	212.02
368.00	210.89
369.00	212.30
370.00	208.01
371.00	213.13
372.00	210.66
373.00	213.26
374.00	215.51
375.00	213.64
376.00	213.66
377.00	216.46
378.00	215.48
379.00	216.10
380.00	218.63
381.00	215.38
382.00	221.19
383.00	221.68
384.00	224.21
385.00	230.28
386.00	225.07
387.00	227.73
388.00	226.52
389.00	231.06
390.00	228.71
391.00	235.24
392.00	233.68
393.00	231.99
394.00	237.72
395.00	236.72
396.00	239.00
397.00	243.53
398.00	252.29
399.00	251.53
400.00	251.19
401.00	254.90
402.00	255.84
403.00	259.60
404.00	266.26
405.00	270.29
406.00	270.00
407.00	277.51
408.00	276.61
409.00	280.20
410.00	279.64
411.00	282.62
412.00	285.66
413.00	291.61
414.00	285.66
415.00	290.68
416.00	294.43
417.00	300.51
418.00	302.50
419.00	305.62
420.00	315.80
421.00	318.36
422.00	325.52
423.00	340.15
424.00	334.64
425.00	348.41
426.00	355.12
427.00	364.77
428.00	369.41
429.00	369.99
430.00	374.51
431.00	387.11
432.00	387.78
433.00	386.56
434.00	394.03
435.00	395.32
436.00	395.79
437.00	398.35
438.00	403.94
439.00	410.00
440.00	408.77
441.00	414.79
442.00	414.93
443.00	418.01
444.00	422.91
445.00	440.50
446.00	442.23
447.00	452.34
448.00	468.23
449.00	471.73
450.00	486.52
451.00	496.59
452.00	514.64
453.00	533.10
454.00	549.07
455.00	560.80
456.00	574.26
457.00	590.34
458.00	593.78
459.00	601.94
460.00	605.97
461.00	610.75
462.00	630.50
463.00	620.05
464.00	613.42
465.00	625.65
466.00	622.12
467.00	616.25
468.00	642.80
469.00	638.79
470.00	644.38
471.00	641.84
472.00	670.17
473.00	674.85
474.00	696.45
475.00	708.31
476.00	728.20
477.00	766.28
478.00	785.79
479.00	802.00
480.00	823.42
481.00	861.24
482.00	881.56
483.00	922.22
484.00	950.73
485.00	999.77
486.00	1045.45
487.00	1064.30
488.00	1101.64
489.00	1157.53
490.00	1179.13
491.00	1233.26
492.00	1264.47
493.00	1295.44
494.00	1335.81
495.00	1357.28
496.00	1358.57
497.00	1394.97
498.00	1410.64
499.00	1399.20
500.00	1426.13
501.00	1429.71
502.00	1430.00
503.00	1448.45
504.00	1452.94
505.00	1463.07
506.00	1479.23
507.00	1490.77
508.00	1483.29
509.00	1507.52
510.00	1498.65
511.00	1514.11
512.00	1544.50
513.00	1561.12
514.00	1582.14
515.00	1583.71
516.00	1608.61
517.00	1637.81
518.00	1673.38
519.00	1703.25
520.00	1737.33
521.00	1769.88
522.00	1805.40
523.00	1839.72
524.00	1894.43
525.00	1943.52
526.00	1976.98
527.00	2033.60
528.00	2070.69
529.00	2132.83
530.00	2181.54
531.00	2238.01
532.00	2278.31
533.00	2318.42
534.00	2370.35
535.00	2423.26
536.00	2436.95
537.00	2491.85
538.00	2516.87
539.00	2543.62
540.00	2555.61
541.00	2623.82
542.00	2594.88
543.00	2621.63
544.00	2603.53
545.00	2604.67
546.00	2591.22
547.00	2621.04
548.00	2616.97
549.00	2628.64
550.00	2599.02
551.00	2617.89
552.00	2601.59
553.00	2633.29
554.00	2644.97
555.00	2646.96
556.00	2690.97
557.00	2675.77
558.00	2703.94
559.00	2714.73
560.00	2746.49
561.00	2764.44
562.00	2793.55
563.00	2812.84
564.00	2843.46
565.00	2882.85
566.00	2914.22
567.00	2976.50
568.00	2972.78
569.00	3009.52
570.00	3050.76
571.00	3103.96
572.00	3114.64
573.00	3169.11
574.00	3199.82
575.00	3195.84
576.00	3265.01
577.00	3305.03
578.00	3321.07
579.00	3347.43
580.00	3401.39
581.00	3432.13
582.00	3438.08
583.00	3486.71
584.00	3515.46
585.00	3518.16
586.00	3529.29
587.00	3513.71
588.00	3534.60
589.00	3534.54
590.00	3520.55
591.00	3547.92
592.00	3549.45
593.00	3509.42
594.00	3544.95
595.00	3542.47
596.00	3552.16
597.00	3513.06
598.00	3497.02
599.00	3516.68
600.00	3494.85
601.00	3468.06
602.00	3501.43
603.00	3494.71
604.00	3530.93
605.00	3527.28
606.00	3496.82
607.00	3496.80
608.00	3495.42
609.00	3480.84
610.00	3484.57
611.00	3541.44
612.00	3547.71
613.00	3530.71
614.00	3558.10
615.00	3589.91
616.00	3546.13
617.00	3580.84
618.00	3600.17
619.00	3622.30
620.00	3613.25
621.00	3659.98
622.00	3663.87
623.00	3676.77
624.00	3682.65
625.00	3728.81
626.00	3721.83
627.00	3760.30
628.00	3782.80
629.00	3800.08
630.00	3828.06
631.00	3847.43
632.00	3821.06
633.00	3825.12
634.00	3851.02
635.00	3847.09
636.00	3852.74
637.00	3875.40
638.00	3881.42
639.00	3869.54
640.00	3860.96
641.00	3802.22
642.00	3840.75
643.00	3816.00
644.00	3785.99
645.00	3785.64
646.00	3751.43
647.00	3739.33
648.00	3729.82
649.00	3656.84
650.00	3697.86
651.00	3642.14
652.00	3608.66
653.00	3585.31
654.00	3557.46
655.00	3546.63
656.00	3530.14
657.00	3485.43
658.00	3493.02
659.00	3461.41
660.00	3449.78
661.00	3405.42
662.00	3429.54
663.00	3387.03
664.00	3376.49
665.00	3322.65
666.00	3326.91
667.00	3304.70
668.00	3276.79
669.00	3286.79
670.00	3293.38
671.00	3276.71
672.00	3247.32
673.00	3250.21
674.00	3212.36
675.00	3200.48
676.00	3198.41
677.00	3209.17
678.00	3234.24
679.00	3219.09
680.00	3210.72
681.00	3191.65
682.00	3189.22
683.00	3168.52
684.00	3202.66
685.00	3170.07
686.00	3154.57
687.00	3182.67
688.00	3173.62
689.00	3187.07
690.00	3193.67
691.00	3209.85
692.00	3215.24
693.00	3242.08
694.00	3236.95
695.00	3232.02
696.00	3215.01
697.00	3208.26
698.00	3206.43
699.00	3236.10
700.00	3229.14
701.00	3208.80
702.00	3282.39
703.00	3216.03
704.00	3171.55
705.00	3216.73
706.00	3143.49
707.00	3176.31
708.00	3169.28
709.00	3172.46
710.00	3156.61
711.00	3108.60
712.00	3134.61
713.00	3053.33
714.00	3060.57
715.00	3048.11
716.00	3028.14
717.00	2972.89
718.00	2940.35
719.00	2896.14
720.00	2838.81
721.00	2837.68
722.00	2756.44
723.00	2750.18
724.00	2731.68
725.00	2692.99
726.00	2674.83
727.00	2653.43
728.00	2616.70
729.00	2584.70
730.00	2615.51
731.00	2566.84
732.00	2548.83
733.00	2543.93
734.00	2502.66
735.00	2502.95
736.00	2461.70
737.00	2399.91
738.00	2430.31
739.00	2411.74
740.00	2434.00
741.00	2373.44
742.00	2335.70
743.00	2342.91
744.00	2285.23
745.00	2246.12
746.00	2246.33
747.00	2231.42
748.00	2218.66
749.00	2189.33
750.00	2163.03
751.00	2153.02
752.00	2126.24
753.00	2147.49
754.00	2124.39
755.00	2103.56
756.00	2070.52
757.00	2054.03
758.00	2063.90
759.00	2099.29
760.00	2029.39
761.00	2019.21
762.00	1971.77
763.00	1959.76
764.00	1967.96
765.00	1941.79
766.00	1959.78
767.00	1932.65
768.00	1919.27
769.00	1909.95
770.00	1884.41
771.00	1893.92
772.00	1907.18
773.00	1878.95
774.00	1858.86
775.00	1855.56
776.00	1846.26
777.00	1830.75
778.00	1789.01
779.00	1768.73
780.00	1780.86
781.00	1774.77
782.00	1780.84
783.00	1769.15
784.00	1774.88
785.00	1786.95
786.00	1779.75
787.00	1808.08
788.00	1811.26
789.00	1816.89
790.00	1832.84
791.00	1818.20
792.00	1821.73
793.00	1840.27
794.00	1851.01
795.00	1837.66
796.00	1857.70
797.00	1830.84
798.00	1867.91
799.00	1850.42
800.00	1832.39
801.00	1834.94
802.00	1828.85
803.00	1797.41
804.00	1812.02
805.00	1802.12
806.00	1773.99
807.00	1760.66
808.00	1780.09
809.00	1743.32
810.00	1728.88
811.00	1726.43
812.00	1692.06
813.00	1669.90
814.00	1638.21
815.00	1660.83
816.00	1615.88
817.00	1589.62
818.00	1573.67
819.00	1553.58
820.00	1533.17
821.00	1528.85
822.00	1523.03
823.00	1514.50
824.00	1452.57
825.00	1433.48
826.00	1434.79
827.00	1394.50
828.00	1371.58
829.00	1351.87
830.00	1328.96
831.00	1309.42
832.00	1280.32
833.00	1276.54
834.00	1255.22
835.00	1265.54
836.00	1229.33
837.00	1197.88
838.00	1194.98
839.00	1194.86
840.00	1166.84
841.00	1150.64
842.00	1145.04
843.00	1115.22
844.00	1097.83
845.00	1100.23
846.00	1080.28
847.00	1050.68
848.00	1047.68
849.00	1032.06
850.00	1021.69
851.00	1017.09
852.00	1004.20
853.00	981.71
854.00	962.56
855.00	947.78
856.00	946.01
857.00	937.66
858.00	920.33
859.00	929.42
860.00	911.62
861.00	909.52
862.00	891.28
863.00	880.50
864.00	873.06
865.00	856.07
866.00	851.57
867.00	843.23
868.00	839.95
869.00	817.76
870.00	814.33
871.00	798.04
872.00	805.32
873.00	773.57
874.00	775.48
875.00	766.33
876.00	755.64
877.00	744.19
878.00	727.62
879.00	723.30
880.00	714.02
881.00	705.43
882.00	703.28
883.00	696.27
884.00	693.02
885.00	684.73
886.00	673.69
887.00	684.46
888.00	667.08
889.00	654.79
890.00	655.59
891.00	650.88
892.00	647.03
893.00	635.83
894.00	647.04
895.00	649.78
896.00	650.62
897.00	638.75
898.00	634.65
899.00	635.50
900.00	629.77
901.00	642.49
902.00	634.22
903.00	630.44
904.00	635.39
905.00	651.12
906.00	633.92
907.00	630.94
908.00	622.11
909.00	635.23
910.00	629.54
911.00	613.45
912.00	622.50
913.00	625.19
914.00	629.48
915.00	616.73
916.00	615.52
917.00	613.22
918.00	601.77
919.00	597.71
920.00	588.01
921.00	579.71
922.00	578.89
923.00	563.96
924.00	562.57
925.00	552.19
926.00	538.95
927.00	522.41
928.00	531.38
929.00	515.90
930.00	515.53
931.00	504.04
932.00	486.25
933.00	474.55
934.00	472.49
935.00	457.91
936.00	434.78
937.00	425.56
938.00	403.72
939.00	392.25
940.00	362.00
941.00	349.60
942.00	335.11
943.00	329.09
944.00	320.29
945.00	318.22
946.00	307.48
947.00	309.18
948.00	310.81
949.00	304.32
950.00	307.32
951.00	305.34
952.00	312.03
953.00	307.31
954.00	315.24
955.00	318.36
956.00	311.38
957.00	312.56
958.00	311.72
959.00	309.91
960.00	319.88
961.00	311.19
962.00	307.96
963.00	307.02
964.00	305.32
965.00	306.40
966.00	303.45
967.00	307.17
968.00	301.05
969.00	296.98
970.00	303.69
971.00	295.64
972.00	293.54
973.00	293.56
974.00	293.91
975.00	290.41
976.00	289.02
977.00	284.20
978.00	284.51
979.00	279.66
980.00	279.57
981.00	272.56
982.00	275.98
983.00	269.93
984.00	268.42
985.00	267.58
986.00	268.71
987.00	265.05
988.00	265.10
989.00	256.83
990.00	256.49
991.00	253.15
992.00	253.02
993.00	253.99
994.00	247.77
995.00	245.43
996.00	247.65
997.00	242.31
998.00	242.57
999.00	236.71
1000.00	243.85
>>>>>End Processed Spectral Data<<<<<
