SpectraSuite Data File
++++++++++++++++++++++++++++++++++++
Date: Thu Oct 13 11:31:38 CDT 2011
User: Helimak
Dark Spectrum Present: No
Reference Spectrum Present: No
Number of Sampled Component Spectra: 1
Spectrometers: USB2G37154
Integration Time (usec): 20000 (USB2G37154)
Spectra Averaged: 1 (USB2G37154)
Boxcar Smoothing: 0 (USB2G37154)
Correct for Electrical Dark: No (USB2G37154)
Strobe/Lamp Enabled: No (USB2G37154)
Correct for Detector Non-linearity: No (USB2G37154)
Correct for Stray Light: No (USB2G37154)
Number of Pixels in Processed Spectrum: 651
>>>>>Begin Processed Spectral Data<<<<<
350.00	199.80
351.00	201.47
352.00	201.77
353.00	202.79
354.00	201.49
355.00	204.52
356.00	205.23
357.00	205.29
358.00	206.13
359.00	202.33
360.00	200.38
361.00	201.54
362.00	205.27
363.00	203.21
364.00	202.06
365.00	202.10
366.00	208.15
367.00	199.04
368.00	203.92
369.00	206.15
370.00	210.99
371.00	203.28
372.00	206.58
373.00	204.63
374.00	207.63
375.00	206.99
376.00	206.79
377.00	209.91
378.00	209.22
379.00	211.74
380.00	208.66
381.00	211.16
382.00	212.08
383.00	205.99
384.00	208.62
385.00	211.13
386.00	212.03
387.00	207.91
388.00	210.86
389.00	210.40
390.00	210.53
391.00	204.21
392.00	214.76
393.00	223.72
394.00	210.79
395.00	214.86
396.00	213.03
397.00	215.69
398.00	214.22
399.00	215.19
400.00	216.69
401.00	216.13
402.00	215.76
403.00	221.86
404.00	221.85
405.00	225.47
406.00	227.01
407.00	220.26
408.00	224.12
409.00	217.18
410.00	221.50
411.00	224.62
412.00	224.56
413.00	222.78
414.00	219.90
415.00	225.24
416.00	219.77
417.00	222.05
418.00	223.79
419.00	226.18
420.00	222.94
421.00	227.53
422.00	231.06
423.00	238.83
424.00	232.05
425.00	236.10
426.00	236.04
427.00	241.96
428.00	242.98
429.00	239.89
430.00	240.11
431.00	241.33
432.00	247.75
433.00	239.90
434.00	239.97
435.00	247.09
436.00	240.76
437.00	240.77
438.00	246.88
439.00	246.92
440.00	244.28
441.00	249.97
442.00	247.98
443.00	243.32
444.00	247.30
445.00	245.13
446.00	249.19
447.00	255.42
448.00	252.90
449.00	255.96
450.00	260.85
451.00	261.66
452.00	262.91
453.00	264.92
454.00	271.77
455.00	270.05
456.00	269.04
457.00	273.97
458.00	272.34
459.00	276.17
460.00	282.99
461.00	274.59
462.00	278.03
463.00	276.53
464.00	278.29
465.00	277.04
466.00	280.35
467.00	280.98
468.00	280.03
469.00	284.26
470.00	280.61
471.00	283.63
472.00	281.53
473.00	282.32
474.00	286.00
475.00	291.57
476.00	293.01
477.00	296.72
478.00	299.99
479.00	301.67
480.00	306.43
481.00	306.14
482.00	314.48
483.00	315.92
484.00	323.18
485.00	333.81
486.00	334.68
487.00	340.72
488.00	348.06
489.00	356.98
490.00	356.44
491.00	357.28
492.00	364.01
493.00	365.93
494.00	370.92
495.00	377.22
496.00	377.88
497.00	379.63
498.00	375.37
499.00	379.60
500.00	376.46
501.00	386.46
502.00	385.00
503.00	385.42
504.00	379.67
505.00	383.71
506.00	384.61
507.00	379.79
508.00	385.47
509.00	391.02
510.00	390.96
511.00	383.96
512.00	383.70
513.00	394.30
514.00	387.75
515.00	390.28
516.00	397.10
517.00	402.39
518.00	406.26
519.00	403.79
520.00	406.41
521.00	411.08
522.00	427.04
523.00	425.91
524.00	431.87
525.00	433.16
526.00	441.22
527.00	442.74
528.00	444.75
529.00	462.24
530.00	460.35
531.00	470.70
532.00	473.43
533.00	463.37
534.00	477.87
535.00	478.07
536.00	483.48
537.00	493.00
538.00	502.62
539.00	499.07
540.00	495.06
541.00	510.08
542.00	506.37
543.00	499.60
544.00	503.32
545.00	498.03
546.00	498.57
547.00	502.46
548.00	490.27
549.00	495.11
550.00	486.92
551.00	495.98
552.00	494.29
553.00	493.82
554.00	484.52
555.00	492.75
556.00	496.92
557.00	495.00
558.00	491.18
559.00	502.49
560.00	498.08
561.00	506.78
562.00	516.10
563.00	508.49
564.00	500.52
565.00	517.50
566.00	515.68
567.00	515.98
568.00	532.45
569.00	529.05
570.00	533.10
571.00	545.98
572.00	543.38
573.00	552.44
574.00	548.87
575.00	557.82
576.00	557.44
577.00	561.94
578.00	556.90
579.00	560.40
580.00	574.05
581.00	570.16
582.00	578.05
583.00	568.98
584.00	578.78
585.00	576.81
586.00	581.38
587.00	579.12
588.00	578.57
589.00	583.42
590.00	577.50
591.00	581.64
592.00	578.20
593.00	576.39
594.00	588.97
595.00	574.71
596.00	580.14
597.00	581.82
598.00	567.00
599.00	574.88
600.00	591.32
601.00	572.04
602.00	571.79
603.00	576.48
604.00	577.72
605.00	570.48
606.00	574.82
607.00	572.17
608.00	585.56
609.00	574.96
610.00	568.96
611.00	585.54
612.00	580.95
613.00	574.90
614.00	583.48
615.00	594.53
616.00	584.58
617.00	582.92
618.00	577.11
619.00	586.93
620.00	591.61
621.00	586.55
622.00	594.10
623.00	590.93
624.00	606.45
625.00	605.96
626.00	610.68
627.00	616.20
628.00	614.87
629.00	607.25
630.00	610.19
631.00	618.03
632.00	617.79
633.00	608.10
634.00	629.40
635.00	619.25
636.00	621.57
637.00	627.40
638.00	614.15
639.00	609.61
640.00	623.63
641.00	621.08
642.00	611.97
643.00	621.32
644.00	611.31
645.00	620.85
646.00	616.92
647.00	615.46
648.00	610.01
649.00	623.97
650.00	610.04
651.00	610.03
652.00	598.58
653.00	600.98
654.00	588.17
655.00	586.09
656.00	583.48
657.00	591.55
658.00	581.99
659.00	575.04
660.00	589.40
661.00	576.20
662.00	579.93
663.00	579.58
664.00	581.30
665.00	571.29
666.00	572.24
667.00	572.35
668.00	569.03
669.00	572.42
670.00	565.61
671.00	559.22
672.00	571.14
673.00	565.97
674.00	567.05
675.00	562.61
676.00	571.05
677.00	563.22
678.00	570.32
679.00	562.45
680.00	564.52
681.00	566.82
682.00	569.64
683.00	568.31
684.00	564.51
685.00	575.83
686.00	565.89
687.00	565.89
688.00	575.24
689.00	579.76
690.00	573.10
691.00	585.73
692.00	578.41
693.00	580.87
694.00	583.06
695.00	579.96
696.00	585.00
697.00	589.00
698.00	583.27
699.00	595.36
700.00	590.75
701.00	590.59
702.00	589.30
703.00	597.09
704.00	577.49
705.00	590.25
706.00	597.94
707.00	572.19
708.00	586.73
709.00	589.25
710.00	578.87
711.00	587.60
712.00	584.22
713.00	575.13
714.00	573.04
715.00	577.31
716.00	568.41
717.00	579.94
718.00	577.04
719.00	568.86
720.00	567.00
721.00	553.15
722.00	561.70
723.00	555.39
724.00	545.90
725.00	545.30
726.00	541.17
727.00	533.63
728.00	535.16
729.00	535.26
730.00	536.11
731.00	535.03
732.00	524.98
733.00	518.94
734.00	524.17
735.00	531.11
736.00	523.72
737.00	518.38
738.00	518.06
739.00	515.43
740.00	521.46
741.00	527.05
742.00	520.04
743.00	513.91
744.00	510.34
745.00	506.36
746.00	502.74
747.00	518.25
748.00	510.16
749.00	505.05
750.00	506.65
751.00	511.79
752.00	512.44
753.00	504.28
754.00	505.90
755.00	510.65
756.00	506.71
757.00	505.24
758.00	504.09
759.00	507.60
760.00	499.86
761.00	508.21
762.00	508.91
763.00	510.13
764.00	504.98
765.00	500.18
766.00	506.40
767.00	508.55
768.00	505.74
769.00	492.81
770.00	506.90
771.00	503.95
772.00	507.52
773.00	505.05
774.00	510.29
775.00	510.71
776.00	501.37
777.00	512.70
778.00	501.01
779.00	505.55
780.00	510.10
781.00	517.35
782.00	509.15
783.00	522.27
784.00	531.66
785.00	525.63
786.00	524.60
787.00	526.43
788.00	539.62
789.00	544.99
790.00	544.97
791.00	547.13
792.00	556.90
793.00	553.44
794.00	557.46
795.00	565.16
796.00	568.28
797.00	571.64
798.00	575.89
799.00	566.29
800.00	577.61
801.00	580.74
802.00	589.03
803.00	575.35
804.00	591.53
805.00	582.28
806.00	584.86
807.00	592.24
808.00	584.22
809.00	576.55
810.00	577.55
811.00	582.81
812.00	577.92
813.00	572.23
814.00	575.79
815.00	576.29
816.00	580.71
817.00	570.46
818.00	572.65
819.00	560.36
820.00	572.52
821.00	560.14
822.00	549.00
823.00	548.06
824.00	548.04
825.00	542.66
826.00	546.28
827.00	541.09
828.00	538.46
829.00	537.05
830.00	528.03
831.00	528.12
832.00	519.48
833.00	528.50
834.00	511.98
835.00	526.55
836.00	525.00
837.00	523.72
838.00	516.68
839.00	510.76
840.00	500.69
841.00	499.82
842.00	502.03
843.00	506.69
844.00	499.63
845.00	498.23
846.00	493.35
847.00	482.81
848.00	495.80
849.00	489.21
850.00	484.67
851.00	486.47
852.00	485.54
853.00	472.49
854.00	469.01
855.00	478.06
856.00	467.37
857.00	466.83
858.00	471.05
859.00	476.87
860.00	465.96
861.00	458.46
862.00	463.56
863.00	474.85
864.00	460.58
865.00	451.89
866.00	458.11
867.00	461.83
868.00	454.99
869.00	449.03
870.00	440.94
871.00	446.52
872.00	445.44
873.00	443.80
874.00	438.20
875.00	439.17
876.00	431.18
877.00	436.66
878.00	427.01
879.00	423.63
880.00	433.83
881.00	428.37
882.00	422.09
883.00	422.00
884.00	423.01
885.00	419.73
886.00	415.54
887.00	422.18
888.00	421.20
889.00	416.86
890.00	414.16
891.00	412.85
892.00	414.44
893.00	418.09
894.00	413.74
895.00	422.10
896.00	414.99
897.00	417.83
898.00	423.32
899.00	426.33
900.00	423.96
901.00	433.35
902.00	424.42
903.00	426.95
904.00	425.82
905.00	433.19
906.00	435.19
907.00	436.81
908.00	442.65
909.00	439.52
910.00	430.05
911.00	442.03
912.00	441.31
913.00	440.07
914.00	441.30
915.00	430.46
916.00	445.08
917.00	436.80
918.00	439.36
919.00	439.24
920.00	434.68
921.00	434.74
922.00	424.29
923.00	422.18
924.00	426.04
925.00	420.30
926.00	406.96
927.00	410.19
928.00	406.46
929.00	397.94
930.00	399.35
931.00	395.04
932.00	389.48
933.00	385.32
934.00	374.87
935.00	364.32
936.00	361.64
937.00	349.31
938.00	337.46
939.00	319.17
940.00	315.81
941.00	300.06
942.00	291.82
943.00	287.31
944.00	281.55
945.00	279.09
946.00	281.52
947.00	276.04
948.00	275.01
949.00	277.19
950.00	279.61
951.00	281.03
952.00	276.10
953.00	277.92
954.00	284.25
955.00	283.26
956.00	285.60
957.00	285.33
958.00	282.84
959.00	289.05
960.00	291.13
961.00	286.41
962.00	287.29
963.00	289.04
964.00	283.20
965.00	292.43
966.00	277.35
967.00	281.62
968.00	290.02
969.00	275.54
970.00	281.08
971.00	274.48
972.00	275.93
973.00	271.05
974.00	274.36
975.00	276.02
976.00	272.69
977.00	272.54
978.00	267.24
979.00	264.72
980.00	266.32
981.00	266.53
982.00	265.08
983.00	258.19
984.00	252.22
985.00	258.50
986.00	253.41
987.00	253.94
988.00	252.05
989.00	249.98
990.00	248.59
991.00	244.40
992.00	242.00
993.00	246.14
994.00	241.70
995.00	239.94
996.00	241.26
997.00	239.22
998.00	235.14
999.00	236.55
1000.00	233.20
>>>>>End Processed Spectral Data<<<<<
