SpectraSuite Data File
++++++++++++++++++++++++++++++++++++
Date: Thu Oct 13 11:31:38 CDT 2011
User: Helimak
Dark Spectrum Present: No
Reference Spectrum Present: No
Number of Sampled Component Spectra: 1
Spectrometers: USB2G37154
Integration Time (usec): 20000 (USB2G37154)
Spectra Averaged: 1 (USB2G37154)
Boxcar Smoothing: 0 (USB2G37154)
Correct for Electrical Dark: No (USB2G37154)
Strobe/Lamp Enabled: No (USB2G37154)
Correct for Detector Non-linearity: No (USB2G37154)
Correct for Stray Light: No (USB2G37154)
Number of Pixels in Processed Spectrum: 651
>>>>>Begin Processed Spectral Data<<<<<
350.00	200.29
351.00	201.00
352.00	206.60
353.00	200.67
354.00	200.38
355.00	204.22
356.00	204.15
357.00	202.73
358.00	199.19
359.00	202.89
360.00	202.31
361.00	205.22
362.00	204.46
363.00	208.61
364.00	200.13
365.00	203.44
366.00	203.27
367.00	204.00
368.00	204.64
369.00	205.80
370.00	206.02
371.00	209.00
372.00	203.89
373.00	204.32
374.00	206.41
375.00	203.79
376.00	204.73
377.00	206.74
378.00	208.12
379.00	209.21
380.00	208.09
381.00	208.65
382.00	211.46
383.00	212.90
384.00	210.07
385.00	209.87
386.00	207.06
387.00	211.67
388.00	208.19
389.00	211.18
390.00	215.48
391.00	211.53
392.00	208.19
393.00	217.96
394.00	213.71
395.00	212.78
396.00	212.98
397.00	216.33
398.00	216.38
399.00	215.80
400.00	216.51
401.00	218.18
402.00	221.12
403.00	221.17
404.00	214.13
405.00	217.73
406.00	221.00
407.00	216.87
408.00	224.75
409.00	223.56
410.00	223.89
411.00	224.07
412.00	218.17
413.00	222.09
414.00	221.27
415.00	224.96
416.00	225.19
417.00	230.55
418.00	222.30
419.00	227.00
420.00	230.97
421.00	224.59
422.00	231.58
423.00	232.77
424.00	233.89
425.00	235.57
426.00	234.85
427.00	239.96
428.00	240.59
429.00	238.72
430.00	238.42
431.00	240.13
432.00	246.50
433.00	238.74
434.00	243.07
435.00	244.68
436.00	243.88
437.00	240.22
438.00	240.11
439.00	250.88
440.00	245.91
441.00	244.75
442.00	239.77
443.00	246.89
444.00	244.97
445.00	242.76
446.00	253.19
447.00	250.06
448.00	254.20
449.00	255.03
450.00	253.64
451.00	261.87
452.00	266.93
453.00	270.06
454.00	267.41
455.00	262.51
456.00	272.24
457.00	274.10
458.00	278.34
459.00	275.96
460.00	281.66
461.00	278.16
462.00	279.87
463.00	277.86
464.00	278.54
465.00	276.66
466.00	278.16
467.00	276.69
468.00	282.15
469.00	282.30
470.00	275.89
471.00	278.35
472.00	285.07
473.00	280.14
474.00	290.83
475.00	295.65
476.00	292.17
477.00	294.28
478.00	298.30
479.00	302.82
480.00	310.95
481.00	312.94
482.00	320.40
483.00	319.11
484.00	331.33
485.00	327.24
486.00	334.18
487.00	343.12
488.00	346.29
489.00	354.04
490.00	358.24
491.00	361.36
492.00	363.60
493.00	371.02
494.00	370.21
495.00	375.09
496.00	369.82
497.00	377.16
498.00	385.31
499.00	380.26
500.00	383.98
501.00	385.03
502.00	386.00
503.00	385.16
504.00	383.61
505.00	386.46
506.00	391.23
507.00	386.59
508.00	378.88
509.00	389.70
510.00	392.52
511.00	396.04
512.00	386.32
513.00	395.58
514.00	389.80
515.00	395.87
516.00	412.91
517.00	398.28
518.00	404.17
519.00	411.26
520.00	407.94
521.00	408.12
522.00	426.34
523.00	424.94
524.00	426.99
525.00	452.30
526.00	440.54
527.00	445.22
528.00	447.94
529.00	455.15
530.00	456.10
531.00	460.71
532.00	469.68
533.00	468.70
534.00	479.86
535.00	497.68
536.00	487.10
537.00	486.30
538.00	495.33
539.00	493.40
540.00	501.04
541.00	501.60
542.00	502.36
543.00	503.09
544.00	511.68
545.00	500.95
546.00	505.05
547.00	498.16
548.00	493.01
549.00	496.87
550.00	495.21
551.00	487.97
552.00	504.69
553.00	483.83
554.00	500.23
555.00	493.02
556.00	492.20
557.00	496.55
558.00	498.45
559.00	491.96
560.00	494.26
561.00	497.51
562.00	508.93
563.00	503.61
564.00	513.51
565.00	518.70
566.00	517.72
567.00	520.41
568.00	522.41
569.00	530.06
570.00	515.44
571.00	534.70
572.00	538.62
573.00	539.09
574.00	544.09
575.00	557.06
576.00	555.79
577.00	562.26
578.00	565.55
579.00	579.56
580.00	578.27
581.00	566.35
582.00	571.47
583.00	579.47
584.00	581.09
585.00	576.18
586.00	578.61
587.00	583.21
588.00	577.82
589.00	572.05
590.00	577.46
591.00	584.99
592.00	587.76
593.00	582.13
594.00	576.03
595.00	582.86
596.00	574.15
597.00	579.43
598.00	577.01
599.00	583.34
600.00	587.47
601.00	582.07
602.00	569.72
603.00	569.12
604.00	570.95
605.00	564.75
606.00	567.10
607.00	582.17
608.00	568.21
609.00	578.06
610.00	581.47
611.00	576.81
612.00	588.71
613.00	591.31
614.00	577.16
615.00	574.07
616.00	584.65
617.00	578.90
618.00	584.31
619.00	583.94
620.00	595.39
621.00	585.43
622.00	594.91
623.00	595.45
624.00	598.35
625.00	600.48
626.00	604.93
627.00	604.92
628.00	626.22
629.00	612.65
630.00	612.42
631.00	612.31
632.00	619.23
633.00	609.54
634.00	622.48
635.00	626.05
636.00	623.12
637.00	619.32
638.00	618.10
639.00	619.07
640.00	632.46
641.00	623.89
642.00	618.13
643.00	618.82
644.00	613.96
645.00	611.80
646.00	606.14
647.00	615.28
648.00	596.37
649.00	616.41
650.00	605.14
651.00	603.75
652.00	600.44
653.00	602.59
654.00	604.07
655.00	591.62
656.00	594.51
657.00	580.77
658.00	588.00
659.00	587.68
660.00	587.75
661.00	587.03
662.00	579.30
663.00	578.83
664.00	568.53
665.00	561.60
666.00	568.51
667.00	566.23
668.00	561.76
669.00	568.90
670.00	570.07
671.00	562.01
672.00	563.01
673.00	553.07
674.00	555.60
675.00	568.58
676.00	568.98
677.00	561.36
678.00	574.51
679.00	576.94
680.00	557.03
681.00	562.46
682.00	566.24
683.00	572.99
684.00	574.65
685.00	566.72
686.00	567.68
687.00	573.21
688.00	565.91
689.00	582.89
690.00	577.38
691.00	573.42
692.00	575.78
693.00	574.97
694.00	585.65
695.00	586.30
696.00	581.00
697.00	587.17
698.00	578.41
699.00	586.90
700.00	590.27
701.00	592.67
702.00	588.54
703.00	585.93
704.00	592.12
705.00	597.88
706.00	587.03
707.00	589.46
708.00	583.55
709.00	595.46
710.00	585.44
711.00	587.40
712.00	582.76
713.00	590.21
714.00	577.17
715.00	582.64
716.00	566.90
717.00	566.85
718.00	577.08
719.00	562.30
720.00	558.56
721.00	547.27
722.00	557.01
723.00	556.14
724.00	542.20
725.00	536.69
726.00	549.00
727.00	535.15
728.00	542.22
729.00	532.14
730.00	535.44
731.00	540.54
732.00	526.82
733.00	529.81
734.00	530.85
735.00	528.13
736.00	526.83
737.00	519.14
738.00	534.93
739.00	517.42
740.00	516.98
741.00	521.24
742.00	517.95
743.00	517.20
744.00	516.72
745.00	507.58
746.00	512.61
747.00	514.66
748.00	514.79
749.00	509.44
750.00	509.32
751.00	503.93
752.00	504.51
753.00	513.45
754.00	497.43
755.00	503.49
756.00	503.79
757.00	506.23
758.00	500.71
759.00	501.20
760.00	504.61
761.00	504.05
762.00	511.35
763.00	501.15
764.00	506.05
765.00	494.67
766.00	512.69
767.00	507.20
768.00	506.97
769.00	505.53
770.00	501.65
771.00	505.68
772.00	511.32
773.00	510.95
774.00	503.63
775.00	508.98
776.00	501.03
777.00	518.83
778.00	507.99
779.00	509.05
780.00	503.49
781.00	519.87
782.00	517.29
783.00	522.12
784.00	527.23
785.00	526.14
786.00	528.95
787.00	526.41
788.00	544.22
789.00	548.07
790.00	542.24
791.00	544.18
792.00	552.70
793.00	549.67
794.00	562.96
795.00	558.03
796.00	563.17
797.00	571.40
798.00	578.91
799.00	581.80
800.00	572.92
801.00	587.26
802.00	590.63
803.00	590.12
804.00	588.15
805.00	584.41
806.00	576.35
807.00	585.87
808.00	577.69
809.00	572.84
810.00	576.71
811.00	583.85
812.00	582.96
813.00	578.67
814.00	570.97
815.00	575.19
816.00	578.64
817.00	578.24
818.00	561.43
819.00	563.44
820.00	563.71
821.00	554.94
822.00	558.06
823.00	565.76
824.00	549.80
825.00	548.73
826.00	538.78
827.00	532.30
828.00	548.02
829.00	535.41
830.00	530.66
831.00	526.78
832.00	532.20
833.00	530.18
834.00	516.97
835.00	523.33
836.00	512.08
837.00	513.68
838.00	516.32
839.00	514.23
840.00	501.49
841.00	508.22
842.00	509.51
843.00	509.49
844.00	500.91
845.00	497.10
846.00	490.34
847.00	486.75
848.00	487.70
849.00	485.20
850.00	488.73
851.00	487.96
852.00	486.25
853.00	480.73
854.00	478.55
855.00	472.65
856.00	476.36
857.00	466.25
858.00	466.84
859.00	464.60
860.00	466.44
861.00	463.99
862.00	459.94
863.00	450.71
864.00	459.43
865.00	448.98
866.00	453.10
867.00	456.62
868.00	447.98
869.00	439.05
870.00	441.01
871.00	450.12
872.00	435.03
873.00	441.76
874.00	429.84
875.00	436.88
876.00	432.04
877.00	434.13
878.00	427.33
879.00	411.14
880.00	428.55
881.00	423.28
882.00	424.60
883.00	429.61
884.00	427.00
885.00	418.56
886.00	417.87
887.00	418.04
888.00	415.63
889.00	410.95
890.00	416.18
891.00	420.97
892.00	415.24
893.00	417.87
894.00	418.01
895.00	414.33
896.00	423.45
897.00	418.63
898.00	419.50
899.00	427.34
900.00	427.56
901.00	426.69
902.00	422.13
903.00	428.41
904.00	431.62
905.00	426.20
906.00	435.07
907.00	438.76
908.00	434.22
909.00	437.50
910.00	438.50
911.00	445.42
912.00	436.34
913.00	439.15
914.00	438.32
915.00	431.33
916.00	438.28
917.00	440.82
918.00	438.29
919.00	432.58
920.00	433.10
921.00	429.13
922.00	428.52
923.00	428.14
924.00	426.46
925.00	416.49
926.00	417.99
927.00	411.62
928.00	403.58
929.00	407.38
930.00	406.82
931.00	395.08
932.00	387.72
933.00	386.51
934.00	375.03
935.00	372.81
936.00	356.74
937.00	351.94
938.00	331.67
939.00	327.18
940.00	313.45
941.00	304.64
942.00	295.93
943.00	291.21
944.00	281.83
945.00	283.80
946.00	269.00
947.00	275.89
948.00	277.72
949.00	272.63
950.00	276.04
951.00	281.35
952.00	279.02
953.00	278.33
954.00	289.25
955.00	281.89
956.00	288.81
957.00	285.71
958.00	283.59
959.00	285.99
960.00	282.41
961.00	288.03
962.00	284.46
963.00	292.36
964.00	283.05
965.00	286.78
966.00	285.16
967.00	285.86
968.00	281.07
969.00	281.62
970.00	278.30
971.00	281.04
972.00	278.41
973.00	280.09
974.00	275.36
975.00	268.79
976.00	272.43
977.00	270.53
978.00	269.45
979.00	263.15
980.00	263.50
981.00	261.68
982.00	256.33
983.00	263.28
984.00	254.31
985.00	257.28
986.00	259.81
987.00	251.78
988.00	248.55
989.00	252.12
990.00	249.86
991.00	247.14
992.00	244.17
993.00	244.79
994.00	246.94
995.00	241.39
996.00	242.37
997.00	233.44
998.00	235.69
999.00	237.12
1000.00	231.50
>>>>>End Processed Spectral Data<<<<<
