SpectraSuite Data File
++++++++++++++++++++++++++++++++++++
Date: Thu Oct 13 11:19:58 CDT 2011
User: Helimak
Dark Spectrum Present: No
Reference Spectrum Present: No
Number of Sampled Component Spectra: 1
Spectrometers: USB2G37154
Integration Time (usec): 20000 (USB2G37154)
Spectra Averaged: 1 (USB2G37154)
Boxcar Smoothing: 0 (USB2G37154)
Correct for Electrical Dark: No (USB2G37154)
Strobe/Lamp Enabled: No (USB2G37154)
Correct for Detector Non-linearity: No (USB2G37154)
Correct for Stray Light: No (USB2G37154)
Number of Pixels in Processed Spectrum: 651
>>>>>Begin Processed Spectral Data<<<<<
350.00	201.99
351.00	199.83
352.00	202.14
353.00	201.72
354.00	207.42
355.00	200.36
356.00	205.57
357.00	206.85
358.00	205.91
359.00	205.51
360.00	204.11
361.00	207.57
362.00	205.37
363.00	205.20
364.00	206.17
365.00	204.93
366.00	205.23
367.00	201.89
368.00	205.57
369.00	205.74
370.00	204.04
371.00	205.37
372.00	206.75
373.00	209.21
374.00	206.21
375.00	209.94
376.00	207.25
377.00	210.20
378.00	207.48
379.00	209.65
380.00	207.33
381.00	211.20
382.00	210.00
383.00	215.23
384.00	211.99
385.00	209.93
386.00	211.05
387.00	217.29
388.00	215.63
389.00	212.26
390.00	214.59
391.00	215.17
392.00	211.52
393.00	215.77
394.00	217.76
395.00	221.30
396.00	221.01
397.00	221.06
398.00	217.31
399.00	224.77
400.00	220.75
401.00	223.14
402.00	228.40
403.00	230.63
404.00	230.00
405.00	228.30
406.00	230.00
407.00	234.52
408.00	231.03
409.00	234.66
410.00	230.62
411.00	231.67
412.00	236.83
413.00	241.01
414.00	236.08
415.00	239.08
416.00	239.12
417.00	240.80
418.00	243.23
419.00	245.12
420.00	245.98
421.00	249.64
422.00	251.54
423.00	262.07
424.00	260.62
425.00	262.68
426.00	267.17
427.00	267.90
428.00	278.40
429.00	274.40
430.00	271.79
431.00	277.28
432.00	276.02
433.00	277.62
434.00	278.06
435.00	284.02
436.00	286.65
437.00	285.92
438.00	291.58
439.00	284.36
440.00	290.71
441.00	287.34
442.00	294.38
443.00	295.72
444.00	294.67
445.00	297.84
446.00	302.14
447.00	304.03
448.00	315.54
449.00	311.98
450.00	320.03
451.00	325.21
452.00	328.29
453.00	339.67
454.00	335.63
455.00	346.07
456.00	358.35
457.00	356.14
458.00	360.25
459.00	364.06
460.00	368.45
461.00	363.19
462.00	376.90
463.00	367.30
464.00	371.01
465.00	376.10
466.00	378.87
467.00	373.56
468.00	374.31
469.00	380.37
470.00	377.84
471.00	383.45
472.00	380.63
473.00	388.65
474.00	394.25
475.00	402.01
476.00	412.01
477.00	410.66
478.00	431.83
479.00	439.80
480.00	440.21
481.00	460.18
482.00	470.29
483.00	478.58
484.00	502.40
485.00	505.14
486.00	518.80
487.00	552.82
488.00	557.52
489.00	569.81
490.00	580.33
491.00	607.51
492.00	626.83
493.00	630.16
494.00	639.71
495.00	641.71
496.00	649.85
497.00	663.89
498.00	670.03
499.00	657.21
500.00	675.13
501.00	682.84
502.00	667.00
503.00	681.02
504.00	692.45
505.00	683.11
506.00	692.58
507.00	706.36
508.00	712.53
509.00	703.32
510.00	703.56
511.00	716.21
512.00	710.80
513.00	717.90
514.00	737.10
515.00	744.77
516.00	744.12
517.00	750.89
518.00	760.08
519.00	783.35
520.00	796.11
521.00	803.15
522.00	812.16
523.00	845.01
524.00	854.78
525.00	873.07
526.00	870.47
527.00	909.84
528.00	921.61
529.00	933.37
530.00	956.78
531.00	979.64
532.00	995.94
533.00	1018.80
534.00	1036.32
535.00	1047.35
536.00	1066.48
537.00	1079.46
538.00	1100.32
539.00	1092.95
540.00	1115.69
541.00	1138.90
542.00	1135.63
543.00	1128.68
544.00	1127.01
545.00	1141.74
546.00	1138.77
547.00	1143.29
548.00	1135.33
549.00	1131.11
550.00	1119.17
551.00	1141.02
552.00	1124.11
553.00	1120.90
554.00	1146.38
555.00	1158.49
556.00	1168.03
557.00	1166.80
558.00	1172.03
559.00	1174.12
560.00	1179.51
561.00	1193.86
562.00	1217.46
563.00	1212.46
564.00	1231.62
565.00	1238.45
566.00	1254.29
567.00	1260.02
568.00	1269.76
569.00	1292.47
570.00	1301.56
571.00	1329.76
572.00	1336.08
573.00	1355.26
574.00	1346.87
575.00	1369.80
576.00	1422.80
577.00	1409.45
578.00	1425.99
579.00	1441.88
580.00	1459.91
581.00	1479.65
582.00	1472.06
583.00	1483.88
584.00	1477.41
585.00	1493.17
586.00	1526.13
587.00	1521.89
588.00	1512.45
589.00	1514.17
590.00	1504.64
591.00	1509.35
592.00	1523.45
593.00	1502.31
594.00	1503.96
595.00	1521.40
596.00	1496.75
597.00	1500.99
598.00	1489.86
599.00	1508.65
600.00	1501.44
601.00	1517.73
602.00	1472.70
603.00	1512.87
604.00	1489.11
605.00	1492.65
606.00	1505.63
607.00	1500.84
608.00	1489.64
609.00	1499.82
610.00	1482.16
611.00	1512.20
612.00	1529.35
613.00	1503.48
614.00	1523.23
615.00	1523.59
616.00	1526.91
617.00	1519.08
618.00	1536.29
619.00	1543.29
620.00	1556.04
621.00	1562.21
622.00	1563.27
623.00	1555.34
624.00	1577.11
625.00	1586.06
626.00	1579.08
627.00	1584.53
628.00	1599.96
629.00	1609.44
630.00	1628.58
631.00	1656.00
632.00	1634.87
633.00	1607.51
634.00	1661.46
635.00	1646.53
636.00	1629.31
637.00	1633.27
638.00	1644.85
639.00	1630.14
640.00	1630.05
641.00	1648.95
642.00	1632.93
643.00	1619.21
644.00	1630.13
645.00	1610.31
646.00	1588.14
647.00	1602.64
648.00	1586.78
649.00	1565.88
650.00	1568.37
651.00	1570.22
652.00	1521.83
653.00	1515.33
654.00	1515.13
655.00	1511.86
656.00	1489.11
657.00	1487.48
658.00	1473.00
659.00	1496.82
660.00	1461.63
661.00	1460.91
662.00	1456.36
663.00	1450.07
664.00	1418.27
665.00	1398.19
666.00	1418.47
667.00	1420.60
668.00	1376.15
669.00	1378.33
670.00	1387.06
671.00	1402.04
672.00	1362.87
673.00	1376.00
674.00	1364.91
675.00	1353.30
676.00	1356.15
677.00	1340.32
678.00	1355.47
679.00	1350.54
680.00	1343.42
681.00	1355.72
682.00	1365.33
683.00	1350.77
684.00	1348.59
685.00	1350.57
686.00	1333.91
687.00	1336.74
688.00	1344.13
689.00	1358.05
690.00	1355.91
691.00	1368.82
692.00	1355.36
693.00	1355.94
694.00	1374.35
695.00	1353.86
696.00	1357.00
697.00	1392.92
698.00	1360.00
699.00	1356.16
700.00	1369.20
701.00	1355.41
702.00	1363.83
703.00	1363.09
704.00	1339.73
705.00	1356.92
706.00	1344.68
707.00	1336.39
708.00	1330.16
709.00	1328.07
710.00	1342.17
711.00	1315.90
712.00	1308.23
713.00	1285.46
714.00	1277.08
715.00	1281.65
716.00	1270.49
717.00	1266.10
718.00	1265.26
719.00	1232.79
720.00	1222.66
721.00	1193.79
722.00	1169.85
723.00	1165.25
724.00	1158.67
725.00	1131.24
726.00	1138.18
727.00	1109.16
728.00	1107.88
729.00	1118.22
730.00	1110.66
731.00	1062.25
732.00	1075.90
733.00	1089.99
734.00	1068.54
735.00	1054.37
736.00	1047.72
737.00	1046.32
738.00	1037.91
739.00	1034.48
740.00	1028.81
741.00	1023.50
742.00	1006.89
743.00	984.04
744.00	967.44
745.00	971.49
746.00	969.22
747.00	944.81
748.00	954.60
749.00	942.92
750.00	924.02
751.00	927.25
752.00	925.14
753.00	924.05
754.00	912.35
755.00	915.96
756.00	901.47
757.00	896.75
758.00	895.15
759.00	897.59
760.00	886.46
761.00	874.32
762.00	873.72
763.00	870.11
764.00	857.90
765.00	848.23
766.00	846.80
767.00	859.14
768.00	839.76
769.00	839.20
770.00	828.06
771.00	847.93
772.00	832.48
773.00	829.56
774.00	825.03
775.00	820.25
776.00	815.55
777.00	809.42
778.00	798.98
779.00	783.82
780.00	792.51
781.00	777.88
782.00	786.62
783.00	783.12
784.00	786.05
785.00	787.73
786.00	793.00
787.00	791.62
788.00	800.78
789.00	807.97
790.00	814.84
791.00	804.53
792.00	815.97
793.00	811.76
794.00	821.23
795.00	818.97
796.00	815.99
797.00	813.42
798.00	808.78
799.00	810.32
800.00	803.84
801.00	819.24
802.00	808.15
803.00	805.91
804.00	807.75
805.00	796.43
806.00	781.85
807.00	787.93
808.00	785.06
809.00	785.82
810.00	774.78
811.00	764.46
812.00	754.99
813.00	746.35
814.00	746.62
815.00	741.01
816.00	737.13
817.00	723.88
818.00	710.77
819.00	695.58
820.00	693.09
821.00	694.96
822.00	679.92
823.00	679.75
824.00	672.57
825.00	666.62
826.00	660.96
827.00	649.63
828.00	653.49
829.00	642.06
830.00	627.26
831.00	615.05
832.00	609.81
833.00	604.56
834.00	604.88
835.00	598.23
836.00	586.92
837.00	582.75
838.00	570.99
839.00	572.28
840.00	554.59
841.00	558.97
842.00	561.46
843.00	547.43
844.00	537.64
845.00	538.30
846.00	535.72
847.00	526.33
848.00	522.63
849.00	515.31
850.00	507.36
851.00	508.49
852.00	496.49
853.00	495.13
854.00	487.28
855.00	480.91
856.00	488.21
857.00	484.52
858.00	478.02
859.00	468.68
860.00	471.45
861.00	480.77
862.00	470.55
863.00	459.62
864.00	455.64
865.00	454.17
866.00	449.72
867.00	447.28
868.00	440.98
869.00	436.65
870.00	432.24
871.00	426.91
872.00	427.19
873.00	423.12
874.00	419.26
875.00	413.43
876.00	409.24
877.00	411.36
878.00	396.47
879.00	398.72
880.00	398.67
881.00	403.46
882.00	394.45
883.00	390.17
884.00	382.01
885.00	389.08
886.00	387.76
887.00	376.03
888.00	379.07
889.00	375.62
890.00	380.52
891.00	376.17
892.00	363.46
893.00	376.90
894.00	373.68
895.00	374.83
896.00	364.92
897.00	366.49
898.00	362.65
899.00	370.46
900.00	367.78
901.00	369.17
902.00	368.20
903.00	370.87
904.00	365.57
905.00	364.07
906.00	369.70
907.00	366.12
908.00	373.22
909.00	372.02
910.00	361.23
911.00	367.11
912.00	361.43
913.00	364.81
914.00	363.13
915.00	359.75
916.00	354.69
917.00	367.06
918.00	352.66
919.00	351.26
920.00	346.69
921.00	355.54
922.00	352.23
923.00	345.09
924.00	348.97
925.00	345.79
926.00	332.02
927.00	332.76
928.00	329.56
929.00	322.05
930.00	324.71
931.00	316.61
932.00	317.18
933.00	308.75
934.00	304.50
935.00	296.13
936.00	295.95
937.00	286.01
938.00	280.86
939.00	276.06
940.00	267.66
941.00	260.25
942.00	255.09
943.00	247.94
944.00	245.93
945.00	241.34
946.00	245.99
947.00	240.03
948.00	244.20
949.00	244.53
950.00	241.30
951.00	244.90
952.00	243.90
953.00	241.35
954.00	239.37
955.00	244.96
956.00	243.01
957.00	246.23
958.00	241.77
959.00	247.99
960.00	247.26
961.00	246.04
962.00	247.14
963.00	238.81
964.00	246.77
965.00	239.19
966.00	244.19
967.00	242.95
968.00	239.05
969.00	243.08
970.00	242.40
971.00	238.12
972.00	240.81
973.00	237.49
974.00	237.90
975.00	234.89
976.00	235.24
977.00	233.95
978.00	233.34
979.00	230.87
980.00	230.05
981.00	230.79
982.00	228.59
983.00	229.34
984.00	226.64
985.00	225.98
986.00	228.86
987.00	221.01
988.00	223.08
989.00	218.55
990.00	220.77
991.00	221.31
992.00	223.52
993.00	219.16
994.00	221.58
995.00	217.60
996.00	220.10
997.00	220.56
998.00	214.57
999.00	215.03
1000.00	216.09
>>>>>End Processed Spectral Data<<<<<
