SpectraSuite Data File
++++++++++++++++++++++++++++++++++++
Date: Wed Jan 25 12:54:48 CST 2012
User: Helimak
Dark Spectrum Present: No
Reference Spectrum Present: No
Number of Sampled Component Spectra: 1
Spectrometers: USB2G37154
Integration Time (usec): 500000 (USB2G37154)
Spectra Averaged: 20 (USB2G37154)
Boxcar Smoothing: 0 (USB2G37154)
Correct for Electrical Dark: No (USB2G37154)
Strobe/Lamp Enabled: No (USB2G37154)
Correct for Detector Non-linearity: No (USB2G37154)
Correct for Stray Light: No (USB2G37154)
Number of Pixels in Processed Spectrum: 651
>>>>>Begin Processed Spectral Data<<<<<
350.00	213.98
351.00	215.12
352.00	212.62
353.00	213.52
354.00	215.40
355.00	216.49
356.00	216.16
357.00	212.91
358.00	220.41
359.00	214.54
360.00	214.67
361.00	214.80
362.00	220.87
363.00	214.05
364.00	219.28
365.00	215.76
366.00	214.01
367.00	215.03
368.00	214.03
369.00	216.41
370.00	217.06
371.00	214.02
372.00	217.18
373.00	215.66
374.00	218.84
375.00	223.13
376.00	215.80
377.00	216.41
378.00	223.25
379.00	215.32
380.00	216.85
381.00	216.48
382.00	217.53
383.00	221.01
384.00	216.12
385.00	216.69
386.00	215.73
387.00	218.43
388.00	214.88
389.00	216.73
390.00	217.18
391.00	217.48
392.00	216.15
393.00	216.11
394.00	219.37
395.00	216.67
396.00	216.18
397.00	217.32
398.00	216.43
399.00	218.44
400.00	217.48
401.00	215.50
402.00	217.87
403.00	217.51
404.00	217.35
405.00	218.71
406.00	216.90
407.00	216.98
408.00	216.20
409.00	217.84
410.00	216.88
411.00	216.08
412.00	218.40
413.00	218.33
414.00	217.24
415.00	220.10
416.00	216.91
417.00	219.34
418.00	218.28
419.00	216.66
420.00	218.21
421.00	218.33
422.00	218.63
423.00	217.29
424.00	217.89
425.00	216.79
426.00	216.77
427.00	225.27
428.00	217.95
429.00	217.32
430.00	217.79
431.00	217.00
432.00	226.73
433.00	220.43
434.00	219.11
435.00	219.28
436.00	221.75
437.00	233.06
438.00	219.54
439.00	216.93
440.00	218.89
441.00	219.39
442.00	217.03
443.00	218.05
444.00	216.49
445.00	217.98
446.00	219.35
447.00	217.82
448.00	218.44
449.00	217.65
450.00	217.68
451.00	220.61
452.00	216.09
453.00	219.05
454.00	218.24
455.00	218.81
456.00	219.79
457.00	217.73
458.00	217.25
459.00	216.93
460.00	219.05
461.00	217.63
462.00	218.81
463.00	219.11
464.00	219.97
465.00	228.15
466.00	227.77
467.00	216.39
468.00	216.82
469.00	218.22
470.00	217.27
471.00	217.41
472.00	219.06
473.00	219.20
474.00	219.75
475.00	216.96
476.00	216.85
477.00	216.46
478.00	217.48
479.00	216.59
480.00	218.24
481.00	217.80
482.00	218.05
483.00	218.34
484.00	217.51
485.00	217.77
486.00	220.34
487.00	216.87
488.00	217.93
489.00	218.74
490.00	219.24
491.00	218.27
492.00	220.87
493.00	219.15
494.00	217.52
495.00	216.08
496.00	220.22
497.00	217.76
498.00	215.58
499.00	217.37
500.00	217.31
501.00	217.51
502.00	216.95
503.00	217.22
504.00	219.54
505.00	216.86
506.00	219.22
507.00	220.87
508.00	218.49
509.00	218.14
510.00	217.93
511.00	220.93
512.00	217.65
513.00	216.91
514.00	215.82
515.00	218.14
516.00	217.19
517.00	216.43
518.00	217.06
519.00	218.45
520.00	219.47
521.00	218.23
522.00	220.39
523.00	215.12
524.00	216.44
525.00	219.22
526.00	220.80
527.00	216.75
528.00	218.00
529.00	221.10
530.00	216.33
531.00	215.92
532.00	216.45
533.00	215.41
534.00	215.82
535.00	217.72
536.00	215.36
537.00	216.82
538.00	218.26
539.00	216.42
540.00	218.12
541.00	217.66
542.00	221.27
543.00	222.34
544.00	222.02
545.00	220.78
546.00	221.45
547.00	224.16
548.00	217.49
549.00	216.24
550.00	216.33
551.00	218.34
552.00	216.69
553.00	216.28
554.00	217.41
555.00	217.19
556.00	219.04
557.00	215.09
558.00	217.63
559.00	216.42
560.00	221.15
561.00	218.55
562.00	215.48
563.00	216.45
564.00	216.32
565.00	217.48
566.00	218.63
567.00	220.21
568.00	216.63
569.00	215.18
570.00	226.46
571.00	242.34
572.00	218.06
573.00	225.08
574.00	222.28
575.00	215.71
576.00	215.59
577.00	216.78
578.00	216.13
579.00	218.71
580.00	216.30
581.00	216.67
582.00	217.94
583.00	218.02
584.00	217.87
585.00	218.17
586.00	219.60
587.00	218.08
588.00	217.03
589.00	217.13
590.00	216.98
591.00	218.32
592.00	216.05
593.00	216.54
594.00	218.01
595.00	214.13
596.00	216.55
597.00	217.58
598.00	220.17
599.00	219.81
600.00	215.53
601.00	216.75
602.00	215.74
603.00	219.93
604.00	216.38
605.00	218.27
606.00	216.25
607.00	216.26
608.00	215.28
609.00	214.98
610.00	216.95
611.00	222.54
612.00	222.09
613.00	222.24
614.00	217.21
615.00	216.73
616.00	217.35
617.00	215.38
618.00	224.74
619.00	249.90
620.00	217.33
621.00	221.96
622.00	216.33
623.00	216.23
624.00	216.42
625.00	214.91
626.00	214.51
627.00	214.77
628.00	219.06
629.00	221.90
630.00	214.59
631.00	218.97
632.00	216.24
633.00	218.32
634.00	216.49
635.00	217.84
636.00	220.30
637.00	215.37
638.00	216.15
639.00	215.07
640.00	222.15
641.00	216.40
642.00	216.10
643.00	217.26
644.00	216.50
645.00	216.71
646.00	223.04
647.00	216.15
648.00	214.73
649.00	216.45
650.00	214.68
651.00	215.28
652.00	215.31
653.00	215.37
654.00	219.33
655.00	216.70
656.00	216.90
657.00	217.77
658.00	218.50
659.00	217.59
660.00	215.85
661.00	216.39
662.00	214.70
663.00	213.62
664.00	230.85
665.00	218.60
666.00	216.42
667.00	221.07
668.00	224.31
669.00	216.11
670.00	214.98
671.00	215.14
672.00	214.86
673.00	216.41
674.00	215.69
675.00	216.32
676.00	217.53
677.00	217.27
678.00	215.71
679.00	216.86
680.00	219.32
681.00	224.05
682.00	226.93
683.00	216.72
684.00	231.76
685.00	227.85
686.00	215.60
687.00	216.12
688.00	214.11
689.00	216.01
690.00	215.22
691.00	217.15
692.00	215.39
693.00	214.00
694.00	213.56
695.00	214.99
696.00	217.80
697.00	223.42
698.00	216.27
699.00	217.61
700.00	215.96
701.00	216.32
702.00	215.23
703.00	217.65
704.00	217.81
705.00	215.21
706.00	216.69
707.00	216.08
708.00	214.04
709.00	218.50
710.00	215.70
711.00	214.26
712.00	215.72
713.00	214.85
714.00	216.07
715.00	216.18
716.00	215.88
717.00	213.84
718.00	215.83
719.00	214.81
720.00	217.72
721.00	216.47
722.00	214.93
723.00	218.03
724.00	218.47
725.00	253.76
726.00	213.92
727.00	214.58
728.00	218.58
729.00	216.24
730.00	215.55
731.00	218.62
732.00	215.84
733.00	217.56
734.00	218.43
735.00	215.67
736.00	214.28
737.00	216.01
738.00	215.79
739.00	218.70
740.00	216.66
741.00	214.59
742.00	216.96
743.00	215.56
744.00	214.31
745.00	234.18
746.00	213.99
747.00	214.19
748.00	214.55
749.00	215.64
750.00	215.10
751.00	215.07
752.00	213.64
753.00	215.19
754.00	215.12
755.00	214.62
756.00	215.58
757.00	218.96
758.00	221.15
759.00	222.53
760.00	217.95
761.00	213.91
762.00	218.61
763.00	228.98
764.00	215.02
765.00	215.87
766.00	214.36
767.00	215.41
768.00	216.70
769.00	214.99
770.00	215.41
771.00	215.77
772.00	214.10
773.00	214.99
774.00	214.97
775.00	225.69
776.00	215.53
777.00	214.36
778.00	215.27
779.00	225.53
780.00	215.67
781.00	214.71
782.00	215.45
783.00	214.30
784.00	215.35
785.00	216.59
786.00	216.49
787.00	217.06
788.00	216.07
789.00	222.11
790.00	217.18
791.00	216.48
792.00	214.05
793.00	214.31
794.00	214.95
795.00	214.45
796.00	214.46
797.00	214.79
798.00	220.13
799.00	218.64
800.00	216.48
801.00	214.40
802.00	217.33
803.00	222.98
804.00	212.64
805.00	213.45
806.00	219.95
807.00	215.13
808.00	219.16
809.00	218.96
810.00	218.18
811.00	216.18
812.00	217.26
813.00	217.29
814.00	217.89
815.00	217.60
816.00	214.59
817.00	223.49
818.00	214.96
819.00	218.52
820.00	217.15
821.00	214.36
822.00	219.87
823.00	217.57
824.00	214.77
825.00	231.29
826.00	219.06
827.00	217.02
828.00	215.26
829.00	217.07
830.00	215.05
831.00	216.46
832.00	216.88
833.00	217.05
834.00	213.87
835.00	218.27
836.00	217.40
837.00	217.54
838.00	216.73
839.00	214.36
840.00	216.82
841.00	215.94
842.00	218.84
843.00	223.39
844.00	214.13
845.00	215.81
846.00	214.52
847.00	218.17
848.00	214.81
849.00	213.98
850.00	216.37
851.00	215.08
852.00	217.45
853.00	218.99
854.00	217.71
855.00	216.37
856.00	231.83
857.00	217.75
858.00	221.96
859.00	216.79
860.00	215.15
861.00	222.31
862.00	214.90
863.00	213.01
864.00	222.60
865.00	217.52
866.00	215.27
867.00	216.87
868.00	217.24
869.00	217.42
870.00	215.70
871.00	216.00
872.00	216.82
873.00	218.04
874.00	214.71
875.00	214.92
876.00	217.50
877.00	214.63
878.00	215.33
879.00	215.66
880.00	215.64
881.00	215.93
882.00	215.38
883.00	215.10
884.00	214.85
885.00	215.13
886.00	214.76
887.00	217.79
888.00	215.62
889.00	215.44
890.00	219.07
891.00	221.89
892.00	218.35
893.00	215.80
894.00	213.94
895.00	222.74
896.00	214.14
897.00	213.92
898.00	214.28
899.00	214.69
900.00	218.07
901.00	216.14
902.00	214.40
903.00	225.70
904.00	215.09
905.00	215.43
906.00	223.62
907.00	216.07
908.00	214.83
909.00	213.03
910.00	214.54
911.00	216.91
912.00	216.92
913.00	215.83
914.00	218.35
915.00	215.76
916.00	217.93
917.00	218.20
918.00	217.18
919.00	219.31
920.00	217.08
921.00	220.18
922.00	215.37
923.00	217.45
924.00	215.77
925.00	218.47
926.00	216.95
927.00	217.32
928.00	213.21
929.00	216.07
930.00	217.23
931.00	214.87
932.00	214.96
933.00	216.02
934.00	213.43
935.00	213.63
936.00	214.71
937.00	215.43
938.00	217.93
939.00	218.17
940.00	216.23
941.00	218.40
942.00	221.35
943.00	216.47
944.00	214.70
945.00	226.20
946.00	216.02
947.00	217.10
948.00	215.02
949.00	216.27
950.00	217.86
951.00	216.70
952.00	214.64
953.00	216.96
954.00	213.58
955.00	220.55
956.00	216.10
957.00	217.06
958.00	217.03
959.00	216.20
960.00	216.60
961.00	215.10
962.00	216.95
963.00	215.50
964.00	216.06
965.00	214.43
966.00	214.34
967.00	217.96
968.00	216.63
969.00	215.88
970.00	215.74
971.00	218.77
972.00	216.65
973.00	222.27
974.00	218.00
975.00	216.19
976.00	220.55
977.00	214.48
978.00	216.95
979.00	216.81
980.00	214.44
981.00	214.95
982.00	217.54
983.00	221.24
984.00	216.08
985.00	219.95
986.00	215.94
987.00	216.42
988.00	219.08
989.00	216.80
990.00	214.35
991.00	217.74
992.00	215.87
993.00	218.09
994.00	216.59
995.00	216.21
996.00	217.21
997.00	217.12
998.00	216.03
999.00	218.06
1000.00	214.62
>>>>>End Processed Spectral Data<<<<<
