SpectraSuite Data File
++++++++++++++++++++++++++++++++++++
Date: Wed Jan 25 12:51:54 CST 2012
User: Helimak
Dark Spectrum Present: No
Reference Spectrum Present: No
Number of Sampled Component Spectra: 1
Spectrometers: USB2G37154
Integration Time (usec): 500000 (USB2G37154)
Spectra Averaged: 20 (USB2G37154)
Boxcar Smoothing: 0 (USB2G37154)
Correct for Electrical Dark: No (USB2G37154)
Strobe/Lamp Enabled: No (USB2G37154)
Correct for Detector Non-linearity: No (USB2G37154)
Correct for Stray Light: No (USB2G37154)
Number of Pixels in Processed Spectrum: 651
>>>>>Begin Processed Spectral Data<<<<<
350.00	213.82
351.00	215.13
352.00	213.31
353.00	213.78
354.00	216.03
355.00	217.48
356.00	216.69
357.00	212.94
358.00	220.04
359.00	213.78
360.00	215.44
361.00	214.86
362.00	220.79
363.00	214.06
364.00	220.64
365.00	215.56
366.00	215.25
367.00	215.44
368.00	214.84
369.00	216.25
370.00	216.80
371.00	215.56
372.00	216.32
373.00	217.01
374.00	218.85
375.00	224.67
376.00	216.27
377.00	217.06
378.00	223.44
379.00	215.25
380.00	216.06
381.00	216.30
382.00	217.52
383.00	219.96
384.00	216.75
385.00	217.13
386.00	217.09
387.00	218.79
388.00	215.24
389.00	216.84
390.00	217.93
391.00	218.43
392.00	215.39
393.00	216.80
394.00	219.29
395.00	216.95
396.00	217.32
397.00	217.02
398.00	216.09
399.00	218.51
400.00	217.16
401.00	215.54
402.00	218.55
403.00	219.44
404.00	216.97
405.00	219.33
406.00	216.85
407.00	217.34
408.00	216.83
409.00	217.60
410.00	216.42
411.00	216.41
412.00	216.84
413.00	217.18
414.00	217.39
415.00	219.50
416.00	218.65
417.00	219.51
418.00	219.26
419.00	217.27
420.00	218.81
421.00	217.70
422.00	218.94
423.00	217.61
424.00	217.32
425.00	217.54
426.00	217.59
427.00	225.54
428.00	216.37
429.00	217.41
430.00	218.09
431.00	216.53
432.00	227.56
433.00	221.43
434.00	218.77
435.00	218.36
436.00	221.86
437.00	232.52
438.00	218.79
439.00	217.77
440.00	217.50
441.00	221.20
442.00	217.45
443.00	217.48
444.00	215.35
445.00	217.84
446.00	219.29
447.00	217.93
448.00	217.82
449.00	218.77
450.00	217.08
451.00	219.25
452.00	217.11
453.00	218.31
454.00	217.54
455.00	219.41
456.00	219.66
457.00	218.39
458.00	218.39
459.00	217.42
460.00	219.49
461.00	217.91
462.00	219.10
463.00	218.82
464.00	220.57
465.00	228.27
466.00	229.39
467.00	217.12
468.00	218.29
469.00	219.03
470.00	217.07
471.00	216.41
472.00	218.82
473.00	218.91
474.00	219.34
475.00	218.07
476.00	216.60
477.00	216.41
478.00	216.55
479.00	215.29
480.00	219.54
481.00	217.93
482.00	218.01
483.00	217.91
484.00	218.91
485.00	218.78
486.00	219.61
487.00	216.83
488.00	217.60
489.00	218.07
490.00	219.58
491.00	217.50
492.00	220.21
493.00	220.16
494.00	219.42
495.00	217.66
496.00	220.03
497.00	216.99
498.00	216.64
499.00	218.02
500.00	217.02
501.00	217.19
502.00	217.40
503.00	217.09
504.00	219.13
505.00	217.47
506.00	218.96
507.00	219.60
508.00	217.89
509.00	216.99
510.00	217.52
511.00	219.93
512.00	218.63
513.00	217.16
514.00	216.27
515.00	217.20
516.00	216.92
517.00	217.70
518.00	217.76
519.00	219.61
520.00	220.21
521.00	217.83
522.00	218.90
523.00	215.28
524.00	215.94
525.00	219.44
526.00	221.38
527.00	216.90
528.00	216.31
529.00	221.53
530.00	216.32
531.00	214.83
532.00	216.02
533.00	216.63
534.00	216.43
535.00	217.02
536.00	215.92
537.00	216.93
538.00	217.82
539.00	216.92
540.00	218.06
541.00	217.04
542.00	221.75
543.00	221.57
544.00	222.54
545.00	219.92
546.00	220.06
547.00	223.08
548.00	216.71
549.00	216.12
550.00	216.07
551.00	218.05
552.00	216.49
553.00	215.62
554.00	217.56
555.00	215.79
556.00	219.53
557.00	215.86
558.00	216.98
559.00	215.93
560.00	221.58
561.00	219.25
562.00	214.59
563.00	216.48
564.00	217.42
565.00	217.09
566.00	218.70
567.00	220.69
568.00	216.74
569.00	215.47
570.00	225.70
571.00	241.33
572.00	218.16
573.00	224.67
574.00	223.36
575.00	216.61
576.00	216.23
577.00	215.55
578.00	215.73
579.00	217.09
580.00	216.26
581.00	216.86
582.00	218.59
583.00	218.04
584.00	218.86
585.00	217.15
586.00	219.08
587.00	218.20
588.00	216.48
589.00	218.10
590.00	217.21
591.00	217.26
592.00	216.00
593.00	217.17
594.00	216.70
595.00	214.32
596.00	216.13
597.00	217.18
598.00	218.95
599.00	219.55
600.00	216.27
601.00	217.93
602.00	215.90
603.00	219.40
604.00	215.84
605.00	217.46
606.00	216.77
607.00	217.50
608.00	214.85
609.00	215.65
610.00	217.72
611.00	222.14
612.00	221.57
613.00	221.54
614.00	216.95
615.00	216.60
616.00	216.99
617.00	216.13
618.00	224.97
619.00	249.87
620.00	217.64
621.00	222.99
622.00	217.53
623.00	216.10
624.00	216.11
625.00	215.51
626.00	215.99
627.00	215.91
628.00	219.07
629.00	221.52
630.00	214.65
631.00	218.35
632.00	216.51
633.00	218.22
634.00	217.27
635.00	219.27
636.00	220.68
637.00	216.28
638.00	217.02
639.00	215.07
640.00	222.89
641.00	216.46
642.00	215.81
643.00	218.52
644.00	217.20
645.00	215.91
646.00	223.24
647.00	216.33
648.00	215.84
649.00	217.27
650.00	214.38
651.00	215.21
652.00	216.27
653.00	215.33
654.00	219.88
655.00	215.74
656.00	217.36
657.00	218.35
658.00	218.35
659.00	217.45
660.00	216.26
661.00	216.86
662.00	215.07
663.00	214.22
664.00	231.38
665.00	218.15
666.00	215.76
667.00	221.29
668.00	224.34
669.00	213.73
670.00	214.75
671.00	215.73
672.00	215.38
673.00	218.05
674.00	215.25
675.00	216.84
676.00	217.88
677.00	216.19
678.00	216.62
679.00	216.46
680.00	218.82
681.00	224.16
682.00	227.86
683.00	217.65
684.00	231.43
685.00	228.42
686.00	215.05
687.00	215.71
688.00	214.25
689.00	216.33
690.00	215.30
691.00	218.00
692.00	215.52
693.00	216.82
694.00	214.89
695.00	215.61
696.00	217.85
697.00	222.44
698.00	217.40
699.00	218.27
700.00	216.48
701.00	216.24
702.00	215.86
703.00	218.46
704.00	217.98
705.00	216.62
706.00	216.74
707.00	215.94
708.00	214.61
709.00	219.71
710.00	215.62
711.00	215.61
712.00	216.45
713.00	214.27
714.00	216.43
715.00	217.15
716.00	215.56
717.00	213.88
718.00	215.79
719.00	214.28
720.00	217.55
721.00	215.98
722.00	215.71
723.00	218.19
724.00	219.14
725.00	253.31
726.00	213.59
727.00	214.57
728.00	217.37
729.00	215.76
730.00	215.77
731.00	218.51
732.00	216.48
733.00	216.44
734.00	218.49
735.00	216.59
736.00	215.43
737.00	216.99
738.00	215.56
739.00	218.66
740.00	216.57
741.00	214.46
742.00	216.71
743.00	216.23
744.00	214.40
745.00	234.57
746.00	214.39
747.00	213.53
748.00	214.87
749.00	216.73
750.00	216.29
751.00	214.89
752.00	213.86
753.00	215.80
754.00	214.73
755.00	215.96
756.00	216.43
757.00	218.82
758.00	221.96
759.00	223.37
760.00	218.29
761.00	214.34
762.00	220.12
763.00	227.67
764.00	213.87
765.00	216.66
766.00	215.02
767.00	216.39
768.00	215.86
769.00	215.40
770.00	215.09
771.00	216.48
772.00	214.42
773.00	215.72
774.00	214.64
775.00	225.66
776.00	215.69
777.00	214.01
778.00	216.08
779.00	225.28
780.00	215.12
781.00	215.34
782.00	216.26
783.00	215.41
784.00	216.26
785.00	215.91
786.00	216.29
787.00	217.81
788.00	215.52
789.00	222.16
790.00	217.28
791.00	216.70
792.00	213.42
793.00	214.53
794.00	215.35
795.00	214.86
796.00	213.36
797.00	215.02
798.00	219.72
799.00	216.45
800.00	216.91
801.00	216.28
802.00	217.98
803.00	222.80
804.00	212.53
805.00	213.08
806.00	219.66
807.00	214.50
808.00	219.77
809.00	219.01
810.00	218.07
811.00	215.18
812.00	217.61
813.00	218.93
814.00	218.03
815.00	215.66
816.00	214.52
817.00	222.67
818.00	215.84
819.00	218.78
820.00	215.90
821.00	214.86
822.00	218.49
823.00	218.69
824.00	215.30
825.00	232.06
826.00	220.07
827.00	216.34
828.00	214.82
829.00	218.12
830.00	216.13
831.00	217.71
832.00	216.42
833.00	216.50
834.00	215.58
835.00	218.64
836.00	216.61
837.00	217.46
838.00	215.96
839.00	215.07
840.00	217.14
841.00	215.23
842.00	218.36
843.00	223.37
844.00	215.55
845.00	216.13
846.00	215.38
847.00	218.34
848.00	214.65
849.00	213.30
850.00	216.44
851.00	213.79
852.00	217.31
853.00	219.08
854.00	217.60
855.00	216.98
856.00	233.29
857.00	218.57
858.00	222.59
859.00	215.65
860.00	214.87
861.00	221.99
862.00	215.50
863.00	215.00
864.00	221.82
865.00	217.66
866.00	215.45
867.00	216.98
868.00	216.54
869.00	216.47
870.00	215.72
871.00	216.09
872.00	218.88
873.00	216.82
874.00	214.91
875.00	215.10
876.00	218.31
877.00	214.90
878.00	215.63
879.00	215.75
880.00	216.93
881.00	216.63
882.00	216.32
883.00	215.63
884.00	215.10
885.00	215.37
886.00	214.39
887.00	217.75
888.00	214.90
889.00	214.16
890.00	218.86
891.00	220.97
892.00	218.80
893.00	216.23
894.00	214.37
895.00	223.20
896.00	214.34
897.00	214.14
898.00	215.21
899.00	215.42
900.00	217.75
901.00	215.60
902.00	215.09
903.00	226.31
904.00	214.80
905.00	214.65
906.00	223.70
907.00	216.65
908.00	215.80
909.00	213.94
910.00	214.43
911.00	215.59
912.00	217.38
913.00	215.75
914.00	217.97
915.00	215.29
916.00	216.42
917.00	218.43
918.00	216.88
919.00	220.44
920.00	215.74
921.00	219.91
922.00	214.89
923.00	217.33
924.00	215.23
925.00	218.48
926.00	216.50
927.00	216.41
928.00	214.50
929.00	217.23
930.00	216.06
931.00	215.31
932.00	214.53
933.00	217.81
934.00	215.06
935.00	214.36
936.00	214.04
937.00	214.43
938.00	217.82
939.00	218.35
940.00	216.31
941.00	218.58
942.00	221.90
943.00	217.47
944.00	216.27
945.00	226.17
946.00	214.74
947.00	216.13
948.00	215.63
949.00	215.85
950.00	217.30
951.00	216.93
952.00	216.04
953.00	216.93
954.00	214.54
955.00	220.57
956.00	215.51
957.00	215.60
958.00	216.92
959.00	215.94
960.00	216.51
961.00	215.54
962.00	215.25
963.00	216.30
964.00	216.30
965.00	214.75
966.00	215.45
967.00	218.00
968.00	217.03
969.00	216.41
970.00	215.88
971.00	218.64
972.00	215.91
973.00	222.22
974.00	219.83
975.00	216.74
976.00	221.32
977.00	215.06
978.00	217.03
979.00	217.44
980.00	214.43
981.00	215.21
982.00	217.36
983.00	222.86
984.00	216.21
985.00	219.62
986.00	216.29
987.00	216.67
988.00	219.38
989.00	217.60
990.00	214.31
991.00	217.42
992.00	216.18
993.00	219.04
994.00	217.35
995.00	216.32
996.00	216.53
997.00	217.73
998.00	216.38
999.00	218.72
1000.00	214.90
>>>>>End Processed Spectral Data<<<<<
