SpectraSuite Data File
++++++++++++++++++++++++++++++++++++
Date: Wed Jan 25 12:21:11 CST 2012
User: Helimak
Dark Spectrum Present: No
Reference Spectrum Present: No
Number of Sampled Component Spectra: 1
Spectrometers: USB2G37154
Integration Time (usec): 500000 (USB2G37154)
Spectra Averaged: 20 (USB2G37154)
Boxcar Smoothing: 0 (USB2G37154)
Correct for Electrical Dark: No (USB2G37154)
Strobe/Lamp Enabled: No (USB2G37154)
Correct for Detector Non-linearity: No (USB2G37154)
Correct for Stray Light: No (USB2G37154)
Number of Pixels in Processed Spectrum: 651
>>>>>Begin Processed Spectral Data<<<<<
350.00	217.65
351.00	220.64
352.00	219.49
353.00	218.05
354.00	220.66
355.00	221.89
356.00	221.38
357.00	218.44
358.00	224.71
359.00	219.34
360.00	220.17
361.00	219.18
362.00	225.88
363.00	219.07
364.00	224.61
365.00	220.55
366.00	219.05
367.00	220.17
368.00	218.92
369.00	220.20
370.00	222.21
371.00	219.90
372.00	222.41
373.00	222.11
374.00	223.79
375.00	229.36
376.00	221.24
377.00	222.59
378.00	229.45
379.00	222.12
380.00	222.12
381.00	221.79
382.00	224.06
383.00	227.94
384.00	221.04
385.00	223.09
386.00	221.46
387.00	224.74
388.00	221.56
389.00	223.62
390.00	223.23
391.00	224.32
392.00	223.77
393.00	224.49
394.00	226.32
395.00	223.54
396.00	224.18
397.00	225.11
398.00	224.47
399.00	226.87
400.00	225.53
401.00	225.17
402.00	228.52
403.00	228.79
404.00	230.69
405.00	232.40
406.00	230.50
407.00	233.25
408.00	233.03
409.00	237.08
410.00	237.09
411.00	240.30
412.00	245.16
413.00	251.50
414.00	255.54
415.00	264.91
416.00	272.61
417.00	283.32
418.00	293.10
419.00	302.45
420.00	313.79
421.00	324.01
422.00	337.04
423.00	349.65
424.00	362.26
425.00	377.22
426.00	388.59
427.00	411.69
428.00	412.20
429.00	421.94
430.00	430.06
431.00	435.96
432.00	453.45
433.00	451.23
434.00	449.01
435.00	465.23
436.00	466.03
437.00	476.81
438.00	462.23
439.00	470.19
440.00	473.47
441.00	478.63
442.00	479.14
443.00	487.03
444.00	495.59
445.00	502.34
446.00	514.82
447.00	522.20
448.00	533.31
449.00	548.83
450.00	558.52
451.00	578.74
452.00	592.53
453.00	614.06
454.00	622.45
455.00	640.03
456.00	662.35
457.00	670.54
458.00	677.82
459.00	685.20
460.00	696.44
461.00	695.46
462.00	709.28
463.00	703.63
464.00	698.81
465.00	709.35
466.00	715.68
467.00	703.48
468.00	712.61
469.00	711.03
470.00	717.40
471.00	727.10
472.00	740.59
473.00	748.00
474.00	764.74
475.00	777.01
476.00	795.68
477.00	820.60
478.00	844.61
479.00	865.46
480.00	897.61
481.00	920.26
482.00	952.22
483.00	983.21
484.00	1029.88
485.00	1066.06
486.00	1108.84
487.00	1139.74
488.00	1177.98
489.00	1227.90
490.00	1259.52
491.00	1289.37
492.00	1323.20
493.00	1352.31
494.00	1377.44
495.00	1386.24
496.00	1399.94
497.00	1410.32
498.00	1422.26
499.00	1423.55
500.00	1424.68
501.00	1418.13
502.00	1417.06
503.00	1423.67
504.00	1417.94
505.00	1412.57
506.00	1416.84
507.00	1423.78
508.00	1422.41
509.00	1417.58
510.00	1420.29
511.00	1435.60
512.00	1432.15
513.00	1444.41
514.00	1446.64
515.00	1455.07
516.00	1462.83
517.00	1476.71
518.00	1501.26
519.00	1515.96
520.00	1543.26
521.00	1552.21
522.00	1576.83
523.00	1601.36
524.00	1624.36
525.00	1649.10
526.00	1678.44
527.00	1706.76
528.00	1740.29
529.00	1777.67
530.00	1789.23
531.00	1829.88
532.00	1857.50
533.00	1872.12
534.00	1903.46
535.00	1925.50
536.00	1940.41
537.00	1957.68
538.00	1975.79
539.00	1970.47
540.00	1980.50
541.00	1999.13
542.00	2010.64
543.00	2004.62
544.00	2002.52
545.00	1980.70
546.00	1983.19
547.00	1958.42
548.00	1942.17
549.00	1932.30
550.00	1920.56
551.00	1911.47
552.00	1908.80
553.00	1899.49
554.00	1907.11
555.00	1903.85
556.00	1905.76
557.00	1905.36
558.00	1900.80
559.00	1908.13
560.00	1917.38
561.00	1922.72
562.00	1947.41
563.00	1940.89
564.00	1962.88
565.00	1980.16
566.00	1997.99
567.00	2006.94
568.00	2014.02
569.00	2027.94
570.00	2057.51
571.00	2115.07
572.00	2100.97
573.00	2131.63
574.00	2148.20
575.00	2157.78
576.00	2196.08
577.00	2208.51
578.00	2226.57
579.00	2255.92
580.00	2277.90
581.00	2284.15
582.00	2305.00
583.00	2327.54
584.00	2349.77
585.00	2338.27
586.00	2344.60
587.00	2355.70
588.00	2356.42
589.00	2358.96
590.00	2359.24
591.00	2362.60
592.00	2360.18
593.00	2364.15
594.00	2368.90
595.00	2361.20
596.00	2361.93
597.00	2356.26
598.00	2352.23
599.00	2369.54
600.00	2363.89
601.00	2362.69
602.00	2356.82
603.00	2372.55
604.00	2371.97
605.00	2369.56
606.00	2383.73
607.00	2392.54
608.00	2393.70
609.00	2403.48
610.00	2409.02
611.00	2465.94
612.00	2472.68
613.00	2473.18
614.00	2479.97
615.00	2487.65
616.00	2499.83
617.00	2512.21
618.00	2529.96
619.00	2576.18
620.00	2564.96
621.00	2588.45
622.00	2594.44
623.00	2616.45
624.00	2642.07
625.00	2659.46
626.00	2676.14
627.00	2699.67
628.00	2727.55
629.00	2758.71
630.00	2763.61
631.00	2803.41
632.00	2806.04
633.00	2801.90
634.00	2830.45
635.00	2843.97
636.00	2860.56
637.00	2859.08
638.00	2879.23
639.00	2875.78
640.00	2903.72
641.00	2891.07
642.00	2875.86
643.00	2887.77
644.00	2878.01
645.00	2872.11
646.00	2857.37
647.00	2859.17
648.00	2844.25
649.00	2842.50
650.00	2833.12
651.00	2822.97
652.00	2807.04
653.00	2794.94
654.00	2780.52
655.00	2768.95
656.00	2749.28
657.00	2740.01
658.00	2742.43
659.00	2721.95
660.00	2714.11
661.00	2701.80
662.00	2690.33
663.00	2702.53
664.00	2687.80
665.00	2657.34
666.00	2656.09
667.00	2646.32
668.00	2645.53
669.00	2625.58
670.00	2626.12
671.00	2622.77
672.00	2603.71
673.00	2604.08
674.00	2602.47
675.00	2582.04
676.00	2612.25
677.00	2592.16
678.00	2593.05
679.00	2589.67
680.00	2580.59
681.00	2585.67
682.00	2591.34
683.00	2568.96
684.00	2598.75
685.00	2597.07
686.00	2571.27
687.00	2581.79
688.00	2583.83
689.00	2598.31
690.00	2601.62
691.00	2604.02
692.00	2592.31
693.00	2599.48
694.00	2611.34
695.00	2636.31
696.00	2630.35
697.00	2643.71
698.00	2631.12
699.00	2640.81
700.00	2631.57
701.00	2642.59
702.00	2643.77
703.00	2641.10
704.00	2630.55
705.00	2645.91
706.00	2618.17
707.00	2608.84
708.00	2612.58
709.00	2622.63
710.00	2608.39
711.00	2588.52
712.00	2587.63
713.00	2557.37
714.00	2538.55
715.00	2528.38
716.00	2503.50
717.00	2478.04
718.00	2453.76
719.00	2430.40
720.00	2394.32
721.00	2363.17
722.00	2329.92
723.00	2305.58
724.00	2282.37
725.00	2299.73
726.00	2234.25
727.00	2203.11
728.00	2200.79
729.00	2182.92
730.00	2169.16
731.00	2151.21
732.00	2140.41
733.00	2129.15
734.00	2097.66
735.00	2103.06
736.00	2067.49
737.00	2045.85
738.00	2062.87
739.00	2023.91
740.00	2031.89
741.00	2012.40
742.00	1974.91
743.00	1973.78
744.00	1955.42
745.00	1959.56
746.00	1914.92
747.00	1911.92
748.00	1890.10
749.00	1875.70
750.00	1858.57
751.00	1862.55
752.00	1833.13
753.00	1846.47
754.00	1826.66
755.00	1821.16
756.00	1799.74
757.00	1798.35
758.00	1797.79
759.00	1808.76
760.00	1771.67
761.00	1780.58
762.00	1765.81
763.00	1751.98
764.00	1719.50
765.00	1720.94
766.00	1717.47
767.00	1711.23
768.00	1692.42
769.00	1699.89
770.00	1677.69
771.00	1681.70
772.00	1673.21
773.00	1663.64
774.00	1651.17
775.00	1645.67
776.00	1622.33
777.00	1625.34
778.00	1604.22
779.00	1613.67
780.00	1590.48
781.00	1590.98
782.00	1588.19
783.00	1591.45
784.00	1591.24
785.00	1601.13
786.00	1612.00
787.00	1616.54
788.00	1631.61
789.00	1647.09
790.00	1636.33
791.00	1647.44
792.00	1653.15
793.00	1665.34
794.00	1667.83
795.00	1674.33
796.00	1674.33
797.00	1678.56
798.00	1688.00
799.00	1677.95
800.00	1679.97
801.00	1667.91
802.00	1670.89
803.00	1664.35
804.00	1648.86
805.00	1638.56
806.00	1639.11
807.00	1627.82
808.00	1618.04
809.00	1605.43
810.00	1592.34
811.00	1574.83
812.00	1565.36
813.00	1548.58
814.00	1524.00
815.00	1511.97
816.00	1494.14
817.00	1482.53
818.00	1458.42
819.00	1440.31
820.00	1424.55
821.00	1404.09
822.00	1388.95
823.00	1375.02
824.00	1349.10
825.00	1348.46
826.00	1322.70
827.00	1301.79
828.00	1280.16
829.00	1268.86
830.00	1243.16
831.00	1227.94
832.00	1216.65
833.00	1204.97
834.00	1180.22
835.00	1175.82
836.00	1157.12
837.00	1136.51
838.00	1122.45
839.00	1109.08
840.00	1095.09
841.00	1081.11
842.00	1071.54
843.00	1058.01
844.00	1041.56
845.00	1031.25
846.00	1017.35
847.00	996.00
848.00	992.11
849.00	976.63
850.00	971.53
851.00	957.37
852.00	948.50
853.00	938.61
854.00	923.91
855.00	911.52
856.00	916.15
857.00	895.10
858.00	886.64
859.00	879.04
860.00	866.75
861.00	872.43
862.00	848.18
863.00	837.97
864.00	832.55
865.00	823.10
866.00	811.58
867.00	810.45
868.00	794.80
869.00	781.34
870.00	769.05
871.00	762.21
872.00	761.54
873.00	749.78
874.00	731.14
875.00	727.90
876.00	717.16
877.00	713.58
878.00	699.60
879.00	689.88
880.00	688.01
881.00	683.56
882.00	676.65
883.00	670.07
884.00	664.66
885.00	660.02
886.00	652.46
887.00	647.23
888.00	640.84
889.00	636.37
890.00	635.80
891.00	635.91
892.00	630.40
893.00	622.98
894.00	620.32
895.00	629.90
896.00	620.35
897.00	615.04
898.00	616.82
899.00	617.91
900.00	617.74
901.00	619.60
902.00	614.96
903.00	627.08
904.00	617.36
905.00	614.58
906.00	621.72
907.00	617.04
908.00	615.94
909.00	611.17
910.00	612.41
911.00	611.14
912.00	612.26
913.00	609.11
914.00	607.99
915.00	601.04
916.00	601.38
917.00	595.39
918.00	588.18
919.00	584.65
920.00	575.69
921.00	576.84
922.00	562.69
923.00	559.66
924.00	549.77
925.00	546.66
926.00	535.55
927.00	527.09
928.00	514.39
929.00	510.50
930.00	504.68
931.00	494.45
932.00	482.01
933.00	473.93
934.00	461.53
935.00	449.18
936.00	434.61
937.00	418.92
938.00	405.89
939.00	385.89
940.00	364.68
941.00	352.73
942.00	343.13
943.00	329.18
944.00	319.83
945.00	325.66
946.00	311.40
947.00	311.56
948.00	310.31
949.00	310.63
950.00	313.16
951.00	314.37
952.00	312.92
953.00	316.53
954.00	313.04
955.00	321.44
956.00	317.82
957.00	318.44
958.00	318.12
959.00	316.96
960.00	316.93
961.00	315.87
962.00	316.56
963.00	313.85
964.00	314.40
965.00	309.36
966.00	309.66
967.00	310.35
968.00	307.40
969.00	303.26
970.00	301.73
971.00	301.74
972.00	299.60
973.00	303.31
974.00	297.50
975.00	292.32
976.00	294.28
977.00	286.42
978.00	287.01
979.00	285.55
980.00	280.25
981.00	277.23
982.00	278.66
983.00	281.80
984.00	273.67
985.00	275.34
986.00	268.86
987.00	267.17
988.00	269.72
989.00	265.83
990.00	259.84
991.00	262.15
992.00	259.31
993.00	259.44
994.00	257.14
995.00	253.61
996.00	252.89
997.00	252.42
998.00	250.34
999.00	249.54
1000.00	245.51
>>>>>End Processed Spectral Data<<<<<
