SpectraSuite Data File
++++++++++++++++++++++++++++++++++++
Date: Wed Jan 25 12:40:28 CST 2012
User: Helimak
Dark Spectrum Present: No
Reference Spectrum Present: No
Number of Sampled Component Spectra: 1
Spectrometers: USB2G37154
Integration Time (usec): 500000 (USB2G37154)
Spectra Averaged: 20 (USB2G37154)
Boxcar Smoothing: 0 (USB2G37154)
Correct for Electrical Dark: No (USB2G37154)
Strobe/Lamp Enabled: No (USB2G37154)
Correct for Detector Non-linearity: No (USB2G37154)
Correct for Stray Light: No (USB2G37154)
Number of Pixels in Processed Spectrum: 651
>>>>>Begin Processed Spectral Data<<<<<
350.00	214.97
351.00	217.60
352.00	215.15
353.00	215.03
354.00	216.42
355.00	219.18
356.00	216.84
357.00	214.41
358.00	221.52
359.00	216.05
360.00	216.86
361.00	215.31
362.00	222.27
363.00	215.31
364.00	221.07
365.00	217.07
366.00	216.52
367.00	216.20
368.00	215.75
369.00	217.59
370.00	217.70
371.00	215.17
372.00	218.57
373.00	217.50
374.00	220.16
375.00	225.06
376.00	217.16
377.00	218.76
378.00	224.11
379.00	218.01
380.00	216.94
381.00	217.66
382.00	218.95
383.00	222.31
384.00	217.13
385.00	219.37
386.00	218.33
387.00	218.85
388.00	217.61
389.00	217.90
390.00	218.74
391.00	219.59
392.00	216.75
393.00	219.01
394.00	220.83
395.00	217.77
396.00	219.75
397.00	219.57
398.00	218.69
399.00	219.67
400.00	218.90
401.00	218.10
402.00	220.66
403.00	220.75
404.00	221.86
405.00	221.58
406.00	219.45
407.00	220.99
408.00	219.62
409.00	221.75
410.00	221.00
411.00	222.15
412.00	223.08
413.00	225.85
414.00	226.69
415.00	231.33
416.00	231.07
417.00	235.11
418.00	237.93
419.00	240.84
420.00	244.42
421.00	245.74
422.00	250.77
423.00	254.10
424.00	257.14
425.00	262.27
426.00	266.40
427.00	276.99
428.00	273.56
429.00	275.05
430.00	277.11
431.00	278.06
432.00	292.06
433.00	285.09
434.00	282.37
435.00	284.53
436.00	289.52
437.00	300.74
438.00	288.00
439.00	289.03
440.00	290.21
441.00	292.40
442.00	291.34
443.00	292.55
444.00	295.76
445.00	299.14
446.00	302.06
447.00	303.76
448.00	307.03
449.00	312.22
450.00	312.97
451.00	320.14
452.00	323.41
453.00	330.43
454.00	332.34
455.00	336.51
456.00	343.65
457.00	344.25
458.00	347.21
459.00	348.36
460.00	351.73
461.00	352.61
462.00	357.01
463.00	352.91
464.00	355.25
465.00	363.69
466.00	365.80
467.00	354.90
468.00	354.70
469.00	357.79
470.00	357.56
471.00	359.20
472.00	364.10
473.00	367.30
474.00	373.56
475.00	374.47
476.00	379.36
477.00	383.71
478.00	389.81
479.00	398.06
480.00	405.52
481.00	411.02
482.00	422.86
483.00	430.01
484.00	440.74
485.00	450.13
486.00	462.10
487.00	468.99
488.00	479.46
489.00	494.98
490.00	501.26
491.00	509.47
492.00	520.06
493.00	526.43
494.00	531.87
495.00	530.39
496.00	539.86
497.00	542.03
498.00	541.25
499.00	544.74
500.00	543.71
501.00	540.81
502.00	540.36
503.00	541.71
504.00	543.96
505.00	539.03
506.00	542.90
507.00	544.52
508.00	540.73
509.00	540.27
510.00	541.83
511.00	545.91
512.00	542.66
513.00	544.95
514.00	545.63
515.00	549.95
516.00	550.44
517.00	552.85
518.00	557.95
519.00	565.40
520.00	572.63
521.00	572.92
522.00	581.21
523.00	584.08
524.00	589.26
525.00	599.59
526.00	611.01
527.00	614.89
528.00	624.42
529.00	632.79
530.00	634.74
531.00	645.77
532.00	650.96
533.00	654.69
534.00	663.86
535.00	670.50
536.00	673.05
537.00	679.77
538.00	683.35
539.00	682.05
540.00	683.40
541.00	685.42
542.00	687.59
543.00	687.53
544.00	685.67
545.00	678.19
546.00	681.25
547.00	679.06
548.00	669.49
549.00	670.45
550.00	665.99
551.00	662.14
552.00	660.43
553.00	658.63
554.00	661.61
555.00	661.06
556.00	663.29
557.00	662.29
558.00	655.37
559.00	660.88
560.00	667.31
561.00	667.91
562.00	671.19
563.00	670.50
564.00	676.91
565.00	684.25
566.00	685.98
567.00	693.21
568.00	689.92
569.00	691.48
570.00	707.06
571.00	733.36
572.00	712.05
573.00	725.86
574.00	729.83
575.00	727.81
576.00	735.89
577.00	738.60
578.00	745.35
579.00	754.39
580.00	753.86
581.00	763.57
582.00	764.53
583.00	772.22
584.00	777.62
585.00	773.09
586.00	775.37
587.00	777.11
588.00	775.21
589.00	777.27
590.00	776.83
591.00	781.35
592.00	780.52
593.00	780.29
594.00	782.66
595.00	777.89
596.00	779.13
597.00	781.79
598.00	782.38
599.00	785.93
600.00	780.10
601.00	784.09
602.00	780.13
603.00	788.41
604.00	784.12
605.00	790.13
606.00	792.52
607.00	793.02
608.00	794.03
609.00	793.89
610.00	795.65
611.00	805.97
612.00	809.79
613.00	816.05
614.00	815.17
615.00	821.84
616.00	825.81
617.00	826.89
618.00	840.42
619.00	874.44
620.00	843.94
621.00	854.62
622.00	854.39
623.00	857.32
624.00	864.74
625.00	871.64
626.00	878.24
627.00	885.28
628.00	894.59
629.00	903.41
630.00	900.85
631.00	916.55
632.00	915.45
633.00	916.36
634.00	925.64
635.00	930.23
636.00	943.75
637.00	929.55
638.00	937.20
639.00	937.70
640.00	951.61
641.00	943.98
642.00	938.21
643.00	941.63
644.00	939.22
645.00	937.01
646.00	940.10
647.00	930.60
648.00	930.27
649.00	928.05
650.00	922.62
651.00	925.15
652.00	917.95
653.00	915.00
654.00	915.47
655.00	909.82
656.00	908.00
657.00	904.80
658.00	904.74
659.00	899.34
660.00	899.10
661.00	891.23
662.00	885.93
663.00	890.77
664.00	900.68
665.00	881.63
666.00	876.24
667.00	878.86
668.00	877.62
669.00	867.33
670.00	868.35
671.00	866.13
672.00	866.32
673.00	869.09
674.00	862.27
675.00	860.04
676.00	865.56
677.00	861.26
678.00	861.85
679.00	858.45
680.00	859.33
681.00	864.70
682.00	869.58
683.00	854.83
684.00	873.60
685.00	867.81
686.00	852.91
687.00	854.54
688.00	858.22
689.00	862.56
690.00	861.30
691.00	867.95
692.00	862.36
693.00	862.42
694.00	867.85
695.00	869.21
696.00	874.10
697.00	882.22
698.00	873.94
699.00	877.46
700.00	872.43
701.00	874.52
702.00	877.29
703.00	876.60
704.00	873.70
705.00	875.54
706.00	868.02
707.00	866.70
708.00	863.56
709.00	869.16
710.00	864.44
711.00	858.03
712.00	858.28
713.00	848.91
714.00	844.35
715.00	845.35
716.00	838.39
717.00	828.98
718.00	820.43
719.00	814.06
720.00	805.00
721.00	797.07
722.00	784.75
723.00	782.10
724.00	773.11
725.00	805.50
726.00	755.63
727.00	748.16
728.00	753.26
729.00	742.90
730.00	741.88
731.00	738.39
732.00	734.52
733.00	730.66
734.00	723.37
735.00	724.46
736.00	713.50
737.00	709.76
738.00	711.34
739.00	702.81
740.00	701.13
741.00	693.59
742.00	686.43
743.00	683.44
744.00	680.62
745.00	696.59
746.00	665.21
747.00	668.31
748.00	664.58
749.00	658.66
750.00	653.98
751.00	653.50
752.00	645.13
753.00	651.76
754.00	645.13
755.00	645.77
756.00	639.51
757.00	642.78
758.00	642.99
759.00	645.08
760.00	633.54
761.00	631.18
762.00	629.92
763.00	632.96
764.00	613.32
765.00	615.89
766.00	611.84
767.00	613.04
768.00	606.19
769.00	604.62
770.00	603.57
771.00	602.42
772.00	602.45
773.00	599.22
774.00	595.82
775.00	599.71
776.00	586.77
777.00	585.20
778.00	582.43
779.00	592.87
780.00	577.91
781.00	576.66
782.00	576.78
783.00	575.88
784.00	577.10
785.00	580.04
786.00	582.33
787.00	584.51
788.00	588.62
789.00	593.31
790.00	590.49
791.00	592.37
792.00	591.34
793.00	594.74
794.00	595.77
795.00	598.47
796.00	596.02
797.00	598.52
798.00	603.91
799.00	597.28
800.00	598.51
801.00	597.01
802.00	597.50
803.00	599.47
804.00	588.28
805.00	585.30
806.00	591.84
807.00	584.20
808.00	586.61
809.00	579.42
810.00	577.12
811.00	571.48
812.00	570.64
813.00	566.63
814.00	560.58
815.00	554.79
816.00	551.70
817.00	551.49
818.00	541.30
819.00	539.83
820.00	529.16
821.00	526.05
822.00	526.94
823.00	521.47
824.00	513.74
825.00	526.28
826.00	507.72
827.00	500.63
828.00	494.61
829.00	494.71
830.00	485.99
831.00	483.89
832.00	478.75
833.00	475.93
834.00	469.17
835.00	472.03
836.00	465.52
837.00	461.13
838.00	457.15
839.00	452.09
840.00	447.84
841.00	444.63
842.00	444.72
843.00	444.31
844.00	432.85
845.00	431.25
846.00	429.00
847.00	425.49
848.00	420.50
849.00	419.10
850.00	417.92
851.00	414.73
852.00	412.63
853.00	411.11
854.00	407.08
855.00	402.78
856.00	416.01
857.00	400.23
858.00	400.75
859.00	389.70
860.00	386.58
861.00	395.00
862.00	384.98
863.00	382.06
864.00	385.92
865.00	380.93
866.00	376.35
867.00	374.93
868.00	374.70
869.00	367.30
870.00	363.98
871.00	362.60
872.00	364.14
873.00	361.46
874.00	353.78
875.00	354.27
876.00	352.10
877.00	346.11
878.00	346.77
879.00	346.47
880.00	343.03
881.00	343.06
882.00	341.12
883.00	337.89
884.00	337.05
885.00	336.52
886.00	332.98
887.00	334.99
888.00	331.54
889.00	329.60
890.00	332.01
891.00	336.02
892.00	331.73
893.00	327.48
894.00	323.15
895.00	334.45
896.00	325.18
897.00	323.50
898.00	325.25
899.00	323.52
900.00	325.99
901.00	324.97
902.00	323.83
903.00	336.62
904.00	323.20
905.00	324.03
906.00	331.99
907.00	326.40
908.00	323.23
909.00	322.27
910.00	322.81
911.00	324.39
912.00	324.20
913.00	322.73
914.00	324.66
915.00	321.20
916.00	321.94
917.00	321.39
918.00	318.39
919.00	319.14
920.00	313.40
921.00	317.14
922.00	309.68
923.00	312.48
924.00	307.33
925.00	306.80
926.00	303.19
927.00	302.45
928.00	296.96
929.00	296.84
930.00	295.76
931.00	291.52
932.00	289.15
933.00	286.94
934.00	282.29
935.00	278.96
936.00	275.59
937.00	271.45
938.00	270.46
939.00	264.64
940.00	258.00
941.00	254.31
942.00	254.50
943.00	248.28
944.00	243.65
945.00	252.91
946.00	241.61
947.00	242.48
948.00	242.79
949.00	241.31
950.00	243.46
951.00	243.25
952.00	241.95
953.00	244.24
954.00	240.71
955.00	246.74
956.00	244.08
957.00	244.71
958.00	244.32
959.00	243.14
960.00	242.83
961.00	242.76
962.00	243.56
963.00	242.92
964.00	242.08
965.00	241.75
966.00	240.52
967.00	242.93
968.00	241.43
969.00	239.28
970.00	239.68
971.00	240.99
972.00	239.32
973.00	244.96
974.00	239.26
975.00	235.38
976.00	241.68
977.00	234.30
978.00	235.57
979.00	234.90
980.00	232.53
981.00	231.39
982.00	234.37
983.00	238.10
984.00	230.84
985.00	233.40
986.00	230.80
987.00	230.32
988.00	232.35
989.00	230.29
990.00	226.93
991.00	228.85
992.00	228.02
993.00	229.27
994.00	228.04
995.00	227.31
996.00	226.85
997.00	227.93
998.00	225.96
999.00	225.95
1000.00	223.04
>>>>>End Processed Spectral Data<<<<<
