SpectraSuite Data File
++++++++++++++++++++++++++++++++++++
Date: Wed Jan 25 12:42:00 CST 2012
User: Helimak
Dark Spectrum Present: No
Reference Spectrum Present: No
Number of Sampled Component Spectra: 1
Spectrometers: USB2G37154
Integration Time (usec): 500000 (USB2G37154)
Spectra Averaged: 20 (USB2G37154)
Boxcar Smoothing: 0 (USB2G37154)
Correct for Electrical Dark: No (USB2G37154)
Strobe/Lamp Enabled: No (USB2G37154)
Correct for Detector Non-linearity: No (USB2G37154)
Correct for Stray Light: No (USB2G37154)
Number of Pixels in Processed Spectrum: 651
>>>>>Begin Processed Spectral Data<<<<<
350.00	213.40
351.00	217.36
352.00	215.10
353.00	215.37
354.00	217.03
355.00	219.03
356.00	217.09
357.00	215.45
358.00	220.99
359.00	214.97
360.00	216.85
361.00	215.77
362.00	222.68
363.00	214.70
364.00	221.43
365.00	217.75
366.00	215.64
367.00	217.25
368.00	216.16
369.00	217.81
370.00	217.76
371.00	215.82
372.00	217.85
373.00	217.82
374.00	219.83
375.00	224.60
376.00	217.53
377.00	217.22
378.00	225.16
379.00	218.02
380.00	218.52
381.00	217.44
382.00	218.21
383.00	223.97
384.00	218.32
385.00	219.59
386.00	217.74
387.00	220.76
388.00	217.38
389.00	217.12
390.00	218.13
391.00	220.10
392.00	218.04
393.00	218.51
394.00	221.42
395.00	218.15
396.00	218.51
397.00	218.82
398.00	218.22
399.00	220.13
400.00	218.50
401.00	216.72
402.00	220.39
403.00	220.50
404.00	220.76
405.00	222.05
406.00	219.85
407.00	221.43
408.00	220.10
409.00	221.75
410.00	221.66
411.00	221.23
412.00	223.39
413.00	225.12
414.00	226.07
415.00	230.13
416.00	231.52
417.00	235.14
418.00	237.00
419.00	239.15
420.00	243.13
421.00	245.09
422.00	249.40
423.00	251.54
424.00	254.99
425.00	260.04
426.00	263.85
427.00	274.36
428.00	269.72
429.00	271.94
430.00	273.83
431.00	273.99
432.00	288.71
433.00	282.52
434.00	280.98
435.00	283.20
436.00	286.50
437.00	297.15
438.00	283.91
439.00	285.32
440.00	287.58
441.00	289.49
442.00	288.37
443.00	289.77
444.00	291.96
445.00	293.88
446.00	297.70
447.00	300.73
448.00	302.45
449.00	307.27
450.00	308.22
451.00	314.26
452.00	317.67
453.00	325.01
454.00	325.72
455.00	331.43
456.00	336.72
457.00	338.14
458.00	341.94
459.00	340.09
460.00	344.58
461.00	344.81
462.00	346.94
463.00	345.82
464.00	347.88
465.00	355.68
466.00	356.61
467.00	345.46
468.00	346.81
469.00	350.60
470.00	348.44
471.00	350.68
472.00	357.94
473.00	359.48
474.00	363.85
475.00	365.47
476.00	371.40
477.00	375.87
478.00	381.71
479.00	386.67
480.00	395.56
481.00	402.70
482.00	408.78
483.00	418.52
484.00	427.30
485.00	436.01
486.00	450.00
487.00	454.76
488.00	464.94
489.00	478.45
490.00	487.26
491.00	492.02
492.00	502.61
493.00	510.08
494.00	513.21
495.00	514.61
496.00	520.01
497.00	520.18
498.00	521.31
499.00	523.50
500.00	524.82
501.00	521.49
502.00	521.80
503.00	521.31
504.00	525.34
505.00	521.74
506.00	526.20
507.00	526.12
508.00	521.45
509.00	519.20
510.00	521.77
511.00	525.37
512.00	526.32
513.00	525.63
514.00	527.16
515.00	529.63
516.00	532.35
517.00	533.61
518.00	537.54
519.00	546.59
520.00	550.42
521.00	552.12
522.00	558.47
523.00	560.79
524.00	568.39
525.00	576.02
526.00	584.43
527.00	588.18
528.00	594.69
529.00	608.31
530.00	608.63
531.00	614.51
532.00	625.92
533.00	626.65
534.00	632.23
535.00	639.36
536.00	641.86
537.00	647.29
538.00	653.65
539.00	650.61
540.00	649.81
541.00	657.49
542.00	660.26
543.00	655.71
544.00	656.88
545.00	648.30
546.00	652.47
547.00	650.45
548.00	640.10
549.00	640.13
550.00	635.40
551.00	636.20
552.00	634.06
553.00	631.59
554.00	634.72
555.00	630.17
556.00	633.76
557.00	629.78
558.00	629.90
559.00	631.18
560.00	637.33
561.00	636.27
562.00	640.98
563.00	640.06
564.00	643.98
565.00	651.50
566.00	652.85
567.00	655.79
568.00	655.21
569.00	658.24
570.00	673.89
571.00	699.57
572.00	675.58
573.00	686.80
574.00	692.43
575.00	687.32
576.00	694.50
577.00	700.50
578.00	702.75
579.00	713.74
580.00	715.86
581.00	718.20
582.00	725.34
583.00	730.23
584.00	732.51
585.00	728.82
586.00	733.05
587.00	734.64
588.00	733.03
589.00	736.31
590.00	737.19
591.00	736.20
592.00	735.52
593.00	735.50
594.00	738.16
595.00	732.78
596.00	737.02
597.00	737.61
598.00	740.10
599.00	741.68
600.00	742.63
601.00	740.24
602.00	737.63
603.00	745.55
604.00	744.46
605.00	746.11
606.00	750.35
607.00	751.01
608.00	749.65
609.00	752.09
610.00	754.50
611.00	766.46
612.00	770.97
613.00	774.57
614.00	771.21
615.00	774.55
616.00	775.92
617.00	779.82
618.00	791.95
619.00	826.42
620.00	794.38
621.00	805.26
622.00	805.12
623.00	811.23
624.00	814.37
625.00	819.24
626.00	826.72
627.00	833.70
628.00	844.78
629.00	854.18
630.00	849.23
631.00	859.84
632.00	858.83
633.00	862.67
634.00	866.87
635.00	872.49
636.00	883.52
637.00	875.47
638.00	883.06
639.00	880.13
640.00	892.45
641.00	882.42
642.00	879.63
643.00	884.18
644.00	882.96
645.00	880.60
646.00	883.24
647.00	876.78
648.00	873.35
649.00	876.03
650.00	866.91
651.00	868.41
652.00	860.54
653.00	859.82
654.00	857.69
655.00	851.93
656.00	853.58
657.00	849.04
658.00	849.09
659.00	841.39
660.00	839.58
661.00	836.24
662.00	833.73
663.00	834.66
664.00	845.68
665.00	829.32
666.00	827.82
667.00	829.74
668.00	829.76
669.00	817.24
670.00	819.60
671.00	815.88
672.00	812.36
673.00	814.92
674.00	813.07
675.00	809.06
676.00	816.57
677.00	806.08
678.00	811.97
679.00	811.00
680.00	807.77
681.00	812.11
682.00	817.83
683.00	806.93
684.00	824.06
685.00	822.45
686.00	800.94
687.00	807.46
688.00	806.14
689.00	809.90
690.00	807.21
691.00	812.92
692.00	811.02
693.00	807.71
694.00	812.64
695.00	814.58
696.00	817.55
697.00	826.53
698.00	819.89
699.00	818.79
700.00	813.85
701.00	817.65
702.00	815.74
703.00	821.11
704.00	818.34
705.00	818.89
706.00	813.08
707.00	810.24
708.00	809.31
709.00	812.16
710.00	805.72
711.00	803.23
712.00	801.83
713.00	792.49
714.00	790.11
715.00	788.63
716.00	781.98
717.00	772.04
718.00	767.05
719.00	761.52
720.00	755.17
721.00	745.08
722.00	735.15
723.00	732.35
724.00	728.33
725.00	757.93
726.00	710.15
727.00	701.88
728.00	706.56
729.00	697.88
730.00	693.45
731.00	690.38
732.00	686.82
733.00	685.37
734.00	680.16
735.00	677.15
736.00	669.69
737.00	664.86
738.00	665.73
739.00	659.67
740.00	657.85
741.00	655.81
742.00	645.96
743.00	646.51
744.00	635.95
745.00	654.99
746.00	625.61
747.00	627.51
748.00	621.41
749.00	619.71
750.00	613.87
751.00	614.98
752.00	605.61
753.00	609.76
754.00	606.10
755.00	603.27
756.00	598.54
757.00	601.27
758.00	603.07
759.00	604.79
760.00	595.01
761.00	590.18
762.00	592.48
763.00	593.98
764.00	575.81
765.00	578.48
766.00	576.62
767.00	573.85
768.00	570.86
769.00	573.80
770.00	567.95
771.00	567.37
772.00	562.36
773.00	563.69
774.00	561.46
775.00	565.60
776.00	554.46
777.00	552.13
778.00	547.93
779.00	557.95
780.00	541.98
781.00	542.46
782.00	543.79
783.00	543.25
784.00	543.82
785.00	544.27
786.00	545.93
787.00	549.20
788.00	552.11
789.00	560.26
790.00	555.87
791.00	555.90
792.00	554.94
793.00	556.89
794.00	557.05
795.00	558.72
796.00	557.84
797.00	562.03
798.00	567.64
799.00	562.77
800.00	563.59
801.00	558.05
802.00	560.47
803.00	561.93
804.00	552.62
805.00	548.34
806.00	552.92
807.00	546.35
808.00	550.30
809.00	542.14
810.00	541.08
811.00	535.50
812.00	533.49
813.00	532.98
814.00	526.44
815.00	519.96
816.00	513.41
817.00	519.88
818.00	508.02
819.00	504.23
820.00	498.67
821.00	494.79
822.00	494.31
823.00	489.69
824.00	481.73
825.00	495.20
826.00	479.41
827.00	472.18
828.00	466.10
829.00	466.88
830.00	457.98
831.00	456.25
832.00	451.13
833.00	449.29
834.00	443.41
835.00	444.30
836.00	439.16
837.00	434.92
838.00	430.58
839.00	426.60
840.00	425.07
841.00	421.08
842.00	420.44
843.00	423.39
844.00	411.99
845.00	411.84
846.00	405.86
847.00	403.51
848.00	400.06
849.00	395.59
850.00	397.76
851.00	393.17
852.00	391.54
853.00	392.10
854.00	385.70
855.00	381.69
856.00	394.68
857.00	380.82
858.00	378.86
859.00	374.34
860.00	369.59
861.00	377.66
862.00	365.42
863.00	363.31
864.00	368.02
865.00	360.90
866.00	357.33
867.00	358.44
868.00	357.26
869.00	351.68
870.00	348.14
871.00	347.10
872.00	348.70
873.00	345.74
874.00	337.90
875.00	337.35
876.00	338.20
877.00	333.63
878.00	332.70
879.00	330.40
880.00	329.65
881.00	329.19
882.00	327.52
883.00	324.58
884.00	323.05
885.00	322.73
886.00	319.15
887.00	322.43
888.00	316.87
889.00	316.66
890.00	319.57
891.00	321.61
892.00	318.26
893.00	314.94
894.00	313.49
895.00	322.12
896.00	310.86
897.00	310.88
898.00	312.56
899.00	310.43
900.00	314.14
901.00	313.96
902.00	311.35
903.00	323.43
904.00	311.53
905.00	310.16
906.00	320.73
907.00	313.99
908.00	311.41
909.00	308.25
910.00	311.05
911.00	311.31
912.00	311.28
913.00	309.36
914.00	309.92
915.00	309.50
916.00	308.87
917.00	308.57
918.00	306.33
919.00	307.99
920.00	303.14
921.00	306.56
922.00	298.50
923.00	298.62
924.00	295.28
925.00	298.19
926.00	292.20
927.00	292.00
928.00	287.96
929.00	287.17
930.00	286.16
931.00	283.04
932.00	280.63
933.00	279.46
934.00	274.53
935.00	270.16
936.00	267.42
937.00	262.97
938.00	263.72
939.00	258.11
940.00	252.39
941.00	250.70
942.00	251.34
943.00	244.85
944.00	239.25
945.00	249.55
946.00	238.60
947.00	238.79
948.00	239.26
949.00	238.18
950.00	240.74
951.00	240.34
952.00	238.37
953.00	240.62
954.00	237.27
955.00	243.67
956.00	239.82
957.00	241.32
958.00	242.66
959.00	240.60
960.00	240.74
961.00	239.24
962.00	239.91
963.00	239.29
964.00	239.13
965.00	236.63
966.00	237.33
967.00	239.88
968.00	238.07
969.00	236.38
970.00	235.33
971.00	239.16
972.00	236.36
973.00	242.87
974.00	237.43
975.00	233.47
976.00	238.25
977.00	230.94
978.00	232.90
979.00	233.29
980.00	228.93
981.00	230.93
982.00	231.33
983.00	237.61
984.00	230.18
985.00	232.16
986.00	228.82
987.00	229.18
988.00	232.06
989.00	228.55
990.00	224.71
991.00	227.43
992.00	225.81
993.00	227.28
994.00	227.35
995.00	225.34
996.00	225.49
997.00	226.12
998.00	224.73
999.00	226.20
1000.00	222.08
>>>>>End Processed Spectral Data<<<<<
