SpectraSuite Data File
++++++++++++++++++++++++++++++++++++
Date: Wed Jan 25 12:54:17 CST 2012
User: Helimak
Dark Spectrum Present: No
Reference Spectrum Present: No
Number of Sampled Component Spectra: 1
Spectrometers: USB2G37154
Integration Time (usec): 500000 (USB2G37154)
Spectra Averaged: 20 (USB2G37154)
Boxcar Smoothing: 0 (USB2G37154)
Correct for Electrical Dark: No (USB2G37154)
Strobe/Lamp Enabled: No (USB2G37154)
Correct for Detector Non-linearity: No (USB2G37154)
Correct for Stray Light: No (USB2G37154)
Number of Pixels in Processed Spectrum: 651
>>>>>Begin Processed Spectral Data<<<<<
350.00	214.61
351.00	216.81
352.00	214.78
353.00	214.53
354.00	216.78
355.00	218.64
356.00	217.48
357.00	214.11
358.00	220.78
359.00	216.07
360.00	216.45
361.00	214.74
362.00	222.43
363.00	215.82
364.00	221.15
365.00	217.80
366.00	215.44
367.00	216.04
368.00	215.55
369.00	216.82
370.00	217.51
371.00	214.99
372.00	217.34
373.00	217.84
374.00	220.00
375.00	225.66
376.00	215.73
377.00	218.07
378.00	224.71
379.00	217.42
380.00	217.59
381.00	218.01
382.00	218.82
383.00	222.31
384.00	218.45
385.00	218.84
386.00	217.47
387.00	220.81
388.00	216.07
389.00	216.54
390.00	218.20
391.00	219.28
392.00	217.88
393.00	218.32
394.00	220.49
395.00	217.85
396.00	218.35
397.00	218.84
398.00	217.80
399.00	219.93
400.00	218.57
401.00	217.57
402.00	219.35
403.00	219.77
404.00	220.44
405.00	221.17
406.00	219.65
407.00	219.77
408.00	219.78
409.00	222.04
410.00	219.89
411.00	220.36
412.00	222.76
413.00	226.19
414.00	225.42
415.00	230.11
416.00	230.27
417.00	233.91
418.00	236.08
419.00	238.04
420.00	241.61
421.00	243.50
422.00	249.14
423.00	250.75
424.00	252.44
425.00	257.98
426.00	261.07
427.00	272.83
428.00	266.99
429.00	268.82
430.00	271.93
431.00	272.53
432.00	285.81
433.00	278.53
434.00	277.30
435.00	278.29
436.00	282.66
437.00	293.96
438.00	280.65
439.00	282.25
440.00	283.73
441.00	285.88
442.00	285.70
443.00	287.16
444.00	287.91
445.00	291.84
446.00	296.25
447.00	296.43
448.00	297.38
449.00	303.04
450.00	304.81
451.00	310.53
452.00	312.83
453.00	319.22
454.00	321.28
455.00	326.77
456.00	332.11
457.00	334.23
458.00	334.55
459.00	336.44
460.00	340.84
461.00	338.31
462.00	343.72
463.00	340.79
464.00	341.41
465.00	353.08
466.00	352.82
467.00	340.85
468.00	343.85
469.00	345.53
470.00	345.69
471.00	345.73
472.00	351.30
473.00	355.28
474.00	359.88
475.00	358.51
476.00	361.78
477.00	370.02
478.00	375.62
479.00	381.21
480.00	389.78
481.00	394.84
482.00	401.78
483.00	407.32
484.00	421.38
485.00	429.09
486.00	439.46
487.00	445.78
488.00	454.53
489.00	465.30
490.00	474.46
491.00	479.44
492.00	488.87
493.00	497.45
494.00	501.71
495.00	501.95
496.00	509.25
497.00	507.46
498.00	508.53
499.00	509.82
500.00	508.28
501.00	508.31
502.00	507.50
503.00	509.25
504.00	512.00
505.00	507.74
506.00	510.54
507.00	509.52
508.00	509.11
509.00	508.65
510.00	506.66
511.00	511.13
512.00	510.08
513.00	512.59
514.00	510.57
515.00	515.47
516.00	514.86
517.00	518.64
518.00	524.91
519.00	529.15
520.00	534.22
521.00	534.61
522.00	543.49
523.00	543.70
524.00	551.27
525.00	558.17
526.00	569.15
527.00	569.91
528.00	578.09
529.00	590.14
530.00	587.33
531.00	595.93
532.00	605.30
533.00	608.04
534.00	612.56
535.00	619.98
536.00	622.10
537.00	627.05
538.00	630.93
539.00	629.22
540.00	632.67
541.00	632.18
542.00	635.57
543.00	635.48
544.00	632.76
545.00	625.36
546.00	630.77
547.00	627.85
548.00	618.92
549.00	618.82
550.00	614.81
551.00	613.93
552.00	610.11
553.00	610.60
554.00	611.98
555.00	609.86
556.00	612.60
557.00	611.11
558.00	608.89
559.00	610.80
560.00	617.99
561.00	615.17
562.00	619.34
563.00	616.45
564.00	622.58
565.00	627.51
566.00	630.21
567.00	636.18
568.00	633.40
569.00	631.40
570.00	649.29
571.00	675.16
572.00	648.35
573.00	666.94
574.00	668.14
575.00	662.22
576.00	670.58
577.00	673.54
578.00	677.33
579.00	686.28
580.00	687.61
581.00	694.30
582.00	700.08
583.00	704.42
584.00	705.18
585.00	706.18
586.00	708.08
587.00	709.42
588.00	707.25
589.00	710.50
590.00	707.53
591.00	710.11
592.00	705.19
593.00	709.93
594.00	709.32
595.00	707.44
596.00	706.97
597.00	706.24
598.00	709.04
599.00	714.80
600.00	708.97
601.00	709.15
602.00	705.92
603.00	713.73
604.00	714.35
605.00	716.69
606.00	718.17
607.00	717.89
608.00	718.99
609.00	722.73
610.00	719.77
611.00	731.14
612.00	735.61
613.00	740.12
614.00	735.88
615.00	741.61
616.00	745.73
617.00	745.36
618.00	758.80
619.00	776.56
620.00	762.61
621.00	771.40
622.00	770.35
623.00	773.77
624.00	780.37
625.00	785.24
626.00	789.61
627.00	796.68
628.00	803.68
629.00	815.91
630.00	812.59
631.00	822.94
632.00	820.98
633.00	823.99
634.00	832.80
635.00	835.18
636.00	840.37
637.00	835.78
638.00	845.34
639.00	838.99
640.00	857.96
641.00	844.12
642.00	841.17
643.00	847.42
644.00	843.70
645.00	841.86
646.00	844.23
647.00	836.76
648.00	835.95
649.00	834.84
650.00	833.47
651.00	832.17
652.00	823.58
653.00	820.92
654.00	822.38
655.00	813.55
656.00	815.96
657.00	813.14
658.00	813.24
659.00	807.78
660.00	803.54
661.00	800.47
662.00	796.71
663.00	800.42
664.00	809.02
665.00	792.90
666.00	791.02
667.00	789.39
668.00	793.04
669.00	782.11
670.00	778.68
671.00	784.96
672.00	776.21
673.00	780.00
674.00	775.97
675.00	773.60
676.00	777.00
677.00	774.55
678.00	777.74
679.00	775.28
680.00	775.07
681.00	778.25
682.00	784.54
683.00	768.18
684.00	787.78
685.00	782.43
686.00	766.99
687.00	768.30
688.00	769.44
689.00	773.82
690.00	773.82
691.00	777.60
692.00	773.37
693.00	774.35
694.00	777.61
695.00	778.48
696.00	780.00
697.00	786.31
698.00	780.59
699.00	782.47
700.00	778.43
701.00	780.03
702.00	782.43
703.00	782.24
704.00	781.16
705.00	781.48
706.00	774.51
707.00	774.70
708.00	772.20
709.00	776.37
710.00	772.59
711.00	763.59
712.00	766.94
713.00	757.68
714.00	756.85
715.00	753.69
716.00	746.10
717.00	739.33
718.00	734.44
719.00	726.87
720.00	723.14
721.00	710.59
722.00	703.45
723.00	704.32
724.00	698.46
725.00	728.18
726.00	681.96
727.00	672.49
728.00	678.72
729.00	669.77
730.00	665.75
731.00	662.39
732.00	661.64
733.00	658.40
734.00	651.47
735.00	650.69
736.00	643.56
737.00	639.23
738.00	640.44
739.00	633.75
740.00	632.20
741.00	627.09
742.00	622.83
743.00	620.30
744.00	612.95
745.00	629.57
746.00	605.13
747.00	607.05
748.00	602.16
749.00	594.54
750.00	591.07
751.00	592.49
752.00	583.66
753.00	588.00
754.00	582.96
755.00	580.20
756.00	576.32
757.00	581.21
758.00	581.02
759.00	583.20
760.00	573.39
761.00	570.81
762.00	571.76
763.00	573.14
764.00	556.64
765.00	554.81
766.00	555.33
767.00	554.02
768.00	549.66
769.00	551.91
770.00	547.51
771.00	546.67
772.00	545.74
773.00	544.48
774.00	539.36
775.00	546.69
776.00	536.39
777.00	533.88
778.00	529.18
779.00	539.84
780.00	526.20
781.00	524.88
782.00	526.71
783.00	524.29
784.00	525.39
785.00	528.24
786.00	529.71
787.00	532.39
788.00	531.59
789.00	541.14
790.00	537.27
791.00	536.80
792.00	533.59
793.00	538.12
794.00	539.15
795.00	539.71
796.00	539.03
797.00	539.28
798.00	549.24
799.00	542.07
800.00	544.35
801.00	540.07
802.00	539.69
803.00	546.73
804.00	534.55
805.00	533.49
806.00	536.42
807.00	529.23
808.00	532.11
809.00	527.09
810.00	524.33
811.00	517.87
812.00	515.69
813.00	513.81
814.00	510.46
815.00	505.13
816.00	499.09
817.00	504.02
818.00	493.55
819.00	492.00
820.00	484.42
821.00	481.78
822.00	481.29
823.00	475.77
824.00	467.97
825.00	480.41
826.00	462.84
827.00	457.40
828.00	452.38
829.00	451.58
830.00	445.20
831.00	442.80
832.00	439.98
833.00	437.49
834.00	430.50
835.00	433.87
836.00	428.55
837.00	425.07
838.00	420.43
839.00	415.46
840.00	414.68
841.00	410.59
842.00	412.33
843.00	413.67
844.00	401.03
845.00	400.42
846.00	396.89
847.00	392.55
848.00	388.32
849.00	387.01
850.00	388.67
851.00	382.91
852.00	382.01
853.00	380.62
854.00	377.25
855.00	373.39
856.00	387.35
857.00	371.68
858.00	372.54
859.00	366.57
860.00	362.64
861.00	369.93
862.00	358.84
863.00	355.49
864.00	362.14
865.00	355.66
866.00	350.66
867.00	350.81
868.00	347.84
869.00	345.31
870.00	341.77
871.00	341.30
872.00	341.39
873.00	339.98
874.00	331.80
875.00	333.24
876.00	332.22
877.00	328.21
878.00	325.02
879.00	325.02
880.00	324.42
881.00	324.32
882.00	319.88
883.00	318.78
884.00	316.95
885.00	318.00
886.00	313.04
887.00	316.71
888.00	313.64
889.00	313.05
890.00	313.98
891.00	315.26
892.00	313.37
893.00	309.21
894.00	307.45
895.00	317.55
896.00	307.38
897.00	306.03
898.00	307.51
899.00	306.27
900.00	308.48
901.00	309.19
902.00	305.39
903.00	316.59
904.00	306.27
905.00	307.21
906.00	316.22
907.00	309.34
908.00	306.45
909.00	303.97
910.00	306.19
911.00	305.70
912.00	306.96
913.00	305.62
914.00	307.37
915.00	302.77
916.00	304.97
917.00	303.68
918.00	302.17
919.00	302.87
920.00	297.94
921.00	301.69
922.00	295.12
923.00	295.07
924.00	292.97
925.00	293.52
926.00	289.44
927.00	288.57
928.00	281.77
929.00	284.02
930.00	280.05
931.00	277.02
932.00	275.56
933.00	275.93
934.00	269.48
935.00	267.53
936.00	262.94
937.00	260.37
938.00	259.92
939.00	256.84
940.00	250.49
941.00	248.28
942.00	248.78
943.00	243.82
944.00	239.12
945.00	249.22
946.00	236.78
947.00	239.50
948.00	236.19
949.00	238.29
950.00	239.00
951.00	238.08
952.00	236.86
953.00	239.01
954.00	236.43
955.00	242.59
956.00	239.28
957.00	239.04
958.00	239.52
959.00	238.94
960.00	239.69
961.00	235.92
962.00	238.82
963.00	238.23
964.00	237.94
965.00	236.26
966.00	236.62
967.00	238.50
968.00	236.53
969.00	235.89
970.00	235.24
971.00	237.57
972.00	235.16
973.00	240.80
974.00	237.75
975.00	232.87
976.00	236.58
977.00	230.20
978.00	233.05
979.00	233.04
980.00	229.74
981.00	228.85
982.00	231.12
983.00	234.55
984.00	228.68
985.00	231.99
986.00	227.59
987.00	228.22
988.00	230.95
989.00	228.18
990.00	224.40
991.00	227.49
992.00	226.50
993.00	227.85
994.00	226.35
995.00	225.72
996.00	225.14
997.00	225.80
998.00	224.88
999.00	225.23
1000.00	222.30
>>>>>End Processed Spectral Data<<<<<
