SpectraSuite Data File
++++++++++++++++++++++++++++++++++++
Date: Fri Jan 27 15:50:59 CST 2012
User: Helimak
Dark Spectrum Present: No
Reference Spectrum Present: No
Number of Sampled Component Spectra: 1
Spectrometers: USB2G37154
Integration Time (usec): 150000 (USB2G37154)
Spectra Averaged: 200 (USB2G37154)
Boxcar Smoothing: 0 (USB2G37154)
Correct for Electrical Dark: No (USB2G37154)
Strobe/Lamp Enabled: No (USB2G37154)
Correct for Detector Non-linearity: No (USB2G37154)
Correct for Stray Light: No (USB2G37154)
Number of Pixels in Processed Spectrum: 651
>>>>>Begin Processed Spectral Data<<<<<
350.00	211.92
351.00	212.98
352.00	212.42
353.00	212.46
354.00	212.79
355.00	213.51
356.00	213.33
357.00	212.44
358.00	214.41
359.00	212.93
360.00	213.49
361.00	213.26
362.00	215.04
363.00	213.13
364.00	214.88
365.00	213.74
366.00	213.73
367.00	213.48
368.00	213.30
369.00	214.31
370.00	214.50
371.00	213.77
372.00	214.39
373.00	214.65
374.00	215.10
375.00	216.90
376.00	214.42
377.00	214.32
378.00	216.66
379.00	214.82
380.00	214.58
381.00	214.70
382.00	215.43
383.00	216.32
384.00	214.92
385.00	215.18
386.00	215.04
387.00	215.65
388.00	214.69
389.00	214.88
390.00	215.29
391.00	215.62
392.00	215.16
393.00	215.24
394.00	216.10
395.00	215.18
396.00	215.44
397.00	215.55
398.00	215.31
399.00	215.73
400.00	215.92
401.00	215.23
402.00	215.90
403.00	215.76
404.00	216.07
405.00	216.55
406.00	215.67
407.00	216.02
408.00	215.82
409.00	216.20
410.00	215.45
411.00	215.56
412.00	215.69
413.00	216.34
414.00	215.67
415.00	216.57
416.00	216.42
417.00	216.67
418.00	216.44
419.00	216.29
420.00	216.51
421.00	215.97
422.00	216.17
423.00	216.35
424.00	215.71
425.00	215.94
426.00	215.93
427.00	218.55
428.00	215.82
429.00	215.89
430.00	216.02
431.00	215.90
432.00	219.06
433.00	217.12
434.00	216.45
435.00	218.35
436.00	217.92
437.00	220.88
438.00	216.07
439.00	216.10
440.00	216.04
441.00	216.68
442.00	215.93
443.00	216.03
444.00	215.91
445.00	216.61
446.00	216.85
447.00	216.04
448.00	216.07
449.00	216.16
450.00	215.83
451.00	216.59
452.00	215.81
453.00	216.40
454.00	216.02
455.00	216.42
456.00	216.66
457.00	216.38
458.00	216.03
459.00	215.73
460.00	216.57
461.00	215.97
462.00	216.52
463.00	216.15
464.00	216.67
465.00	219.33
466.00	219.34
467.00	215.67
468.00	215.98
469.00	216.25
470.00	215.98
471.00	215.64
472.00	216.28
473.00	216.53
474.00	216.45
475.00	215.59
476.00	215.69
477.00	215.32
478.00	215.55
479.00	215.64
480.00	216.11
481.00	215.78
482.00	215.76
483.00	215.81
484.00	215.97
485.00	216.34
486.00	216.59
487.00	215.89
488.00	216.65
489.00	216.14
490.00	217.09
491.00	216.57
492.00	217.15
493.00	216.98
494.00	216.32
495.00	215.67
496.00	216.60
497.00	215.38
498.00	215.48
499.00	215.74
500.00	215.47
501.00	215.44
502.00	215.47
503.00	215.42
504.00	216.21
505.00	215.54
506.00	215.88
507.00	216.37
508.00	215.80
509.00	215.45
510.00	215.49
511.00	216.71
512.00	215.98
513.00	214.84
514.00	215.00
515.00	215.42
516.00	214.87
517.00	215.23
518.00	215.25
519.00	215.67
520.00	215.82
521.00	215.38
522.00	215.85
523.00	214.70
524.00	214.67
525.00	215.91
526.00	216.80
527.00	215.29
528.00	215.66
529.00	216.48
530.00	214.77
531.00	214.68
532.00	214.91
533.00	215.01
534.00	214.92
535.00	215.45
536.00	214.79
537.00	215.25
538.00	215.66
539.00	215.47
540.00	216.00
541.00	216.96
542.00	219.80
543.00	220.55
544.00	220.61
545.00	219.41
546.00	220.03
547.00	218.21
548.00	215.80
549.00	215.81
550.00	215.73
551.00	216.27
552.00	215.41
553.00	215.18
554.00	215.22
555.00	214.99
556.00	215.47
557.00	214.49
558.00	214.91
559.00	214.30
560.00	216.04
561.00	215.55
562.00	214.62
563.00	214.74
564.00	214.90
565.00	214.75
566.00	215.18
567.00	216.03
568.00	214.70
569.00	214.30
570.00	217.69
571.00	222.09
572.00	214.97
573.00	217.25
574.00	216.55
575.00	214.58
576.00	215.05
577.00	214.95
578.00	214.75
579.00	215.25
580.00	215.25
581.00	215.28
582.00	215.90
583.00	215.74
584.00	216.33
585.00	215.59
586.00	216.18
587.00	216.40
588.00	216.08
589.00	215.43
590.00	215.39
591.00	215.37
592.00	214.94
593.00	215.59
594.00	215.63
595.00	214.36
596.00	214.85
597.00	214.91
598.00	215.98
599.00	215.69
600.00	214.86
601.00	214.69
602.00	214.35
603.00	215.43
604.00	214.40
605.00	215.27
606.00	214.77
607.00	214.71
608.00	214.50
609.00	214.70
610.00	216.06
611.00	221.93
612.00	220.86
613.00	218.88
614.00	216.04
615.00	215.80
616.00	215.64
617.00	214.89
618.00	217.50
619.00	225.28
620.00	215.39
621.00	216.92
622.00	215.09
623.00	214.84
624.00	215.07
625.00	214.85
626.00	214.59
627.00	214.41
628.00	215.69
629.00	216.43
630.00	214.19
631.00	215.72
632.00	214.85
633.00	215.12
634.00	214.51
635.00	214.97
636.00	215.75
637.00	214.41
638.00	214.76
639.00	214.28
640.00	216.74
641.00	214.80
642.00	214.20
643.00	215.10
644.00	214.42
645.00	214.44
646.00	216.57
647.00	214.32
648.00	214.10
649.00	214.88
650.00	213.99
651.00	214.47
652.00	214.21
653.00	214.01
654.00	215.25
655.00	214.27
656.00	214.44
657.00	214.79
658.00	215.24
659.00	214.88
660.00	214.59
661.00	214.47
662.00	213.97
663.00	214.02
664.00	218.76
665.00	214.92
666.00	214.24
667.00	215.88
668.00	216.98
669.00	214.36
670.00	213.73
671.00	214.06
672.00	214.14
673.00	214.66
674.00	214.12
675.00	214.63
676.00	214.93
677.00	214.24
678.00	214.67
679.00	214.22
680.00	214.95
681.00	216.56
682.00	217.93
683.00	214.78
684.00	218.94
685.00	217.93
686.00	214.31
687.00	213.82
688.00	214.00
689.00	214.31
690.00	213.97
691.00	215.09
692.00	214.21
693.00	213.96
694.00	213.77
695.00	213.91
696.00	214.85
697.00	216.65
698.00	214.32
699.00	214.83
700.00	213.99
701.00	214.30
702.00	213.96
703.00	214.39
704.00	215.06
705.00	214.10
706.00	214.50
707.00	214.12
708.00	213.76
709.00	215.33
710.00	214.25
711.00	214.06
712.00	214.36
713.00	214.00
714.00	214.42
715.00	214.43
716.00	214.28
717.00	213.73
718.00	214.20
719.00	213.86
720.00	214.63
721.00	214.16
722.00	213.94
723.00	214.85
724.00	215.05
725.00	224.70
726.00	213.12
727.00	213.83
728.00	214.77
729.00	214.13
730.00	213.79
731.00	215.06
732.00	214.12
733.00	214.39
734.00	215.24
735.00	214.08
736.00	213.79
737.00	214.19
738.00	213.88
739.00	215.05
740.00	214.18
741.00	213.62
742.00	214.59
743.00	214.28
744.00	213.85
745.00	219.47
746.00	213.56
747.00	213.91
748.00	213.85
749.00	214.38
750.00	214.26
751.00	214.01
752.00	213.20
753.00	213.90
754.00	213.84
755.00	214.04
756.00	213.84
757.00	215.24
758.00	216.03
759.00	216.35
760.00	214.89
761.00	213.68
762.00	215.11
763.00	217.92
764.00	213.37
765.00	214.19
766.00	214.12
767.00	214.09
768.00	214.26
769.00	213.85
770.00	213.99
771.00	214.34
772.00	213.77
773.00	214.17
774.00	213.83
775.00	217.13
776.00	214.15
777.00	213.53
778.00	214.03
779.00	216.78
780.00	213.93
781.00	213.41
782.00	214.05
783.00	213.74
784.00	214.01
785.00	213.93
786.00	214.07
787.00	214.55
788.00	214.32
789.00	215.69
790.00	214.05
791.00	214.20
792.00	213.52
793.00	214.01
794.00	213.83
795.00	213.78
796.00	213.82
797.00	213.88
798.00	215.58
799.00	214.50
800.00	214.34
801.00	213.77
802.00	214.28
803.00	216.13
804.00	213.28
805.00	213.30
806.00	214.72
807.00	213.73
808.00	215.51
809.00	215.01
810.00	214.78
811.00	214.20
812.00	214.66
813.00	214.93
814.00	214.90
815.00	213.90
816.00	213.72
817.00	216.39
818.00	214.21
819.00	215.07
820.00	213.85
821.00	213.59
822.00	215.33
823.00	214.89
824.00	213.79
825.00	219.03
826.00	215.17
827.00	214.13
828.00	213.71
829.00	214.66
830.00	214.06
831.00	214.62
832.00	214.27
833.00	214.35
834.00	213.97
835.00	214.84
836.00	214.20
837.00	214.49
838.00	213.98
839.00	213.69
840.00	214.29
841.00	213.82
842.00	215.17
843.00	215.73
844.00	213.78
845.00	214.37
846.00	214.01
847.00	214.83
848.00	213.77
849.00	213.89
850.00	214.05
851.00	213.55
852.00	214.44
853.00	214.79
854.00	214.43
855.00	214.09
856.00	219.46
857.00	214.38
858.00	215.72
859.00	214.29
860.00	213.52
861.00	216.09
862.00	213.90
863.00	213.39
864.00	215.92
865.00	214.94
866.00	214.20
867.00	214.10
868.00	214.36
869.00	214.48
870.00	213.66
871.00	213.76
872.00	214.90
873.00	214.48
874.00	213.39
875.00	213.85
876.00	214.04
877.00	213.46
878.00	214.05
879.00	213.98
880.00	213.81
881.00	213.95
882.00	213.96
883.00	213.97
884.00	213.63
885.00	214.04
886.00	213.87
887.00	214.32
888.00	213.57
889.00	214.04
890.00	214.54
891.00	215.66
892.00	214.88
893.00	213.71
894.00	213.44
895.00	216.32
896.00	213.57
897.00	213.47
898.00	213.69
899.00	213.96
900.00	214.82
901.00	214.06
902.00	213.78
903.00	217.06
904.00	213.62
905.00	213.56
906.00	216.15
907.00	214.34
908.00	213.63
909.00	213.21
910.00	213.62
911.00	214.31
912.00	214.29
913.00	213.85
914.00	214.63
915.00	213.93
916.00	214.03
917.00	214.93
918.00	214.19
919.00	215.16
920.00	213.92
921.00	215.46
922.00	213.73
923.00	214.55
924.00	214.07
925.00	214.73
926.00	214.25
927.00	214.41
928.00	213.46
929.00	214.09
930.00	214.35
931.00	213.65
932.00	213.92
933.00	214.02
934.00	213.53
935.00	213.73
936.00	213.39
937.00	213.42
938.00	214.96
939.00	214.47
940.00	213.71
941.00	214.77
942.00	215.36
943.00	214.58
944.00	213.74
945.00	217.05
946.00	213.88
947.00	214.13
948.00	213.87
949.00	213.98
950.00	214.21
951.00	214.43
952.00	213.60
953.00	214.11
954.00	213.14
955.00	215.04
956.00	213.88
957.00	214.39
958.00	214.60
959.00	214.15
960.00	214.19
961.00	213.58
962.00	213.91
963.00	214.09
964.00	213.94
965.00	213.31
966.00	213.42
967.00	214.63
968.00	214.29
969.00	213.76
970.00	214.04
971.00	214.90
972.00	214.24
973.00	215.85
974.00	214.86
975.00	214.02
976.00	215.19
977.00	213.45
978.00	214.27
979.00	214.58
980.00	213.32
981.00	213.88
982.00	214.68
983.00	215.66
984.00	213.93
985.00	215.07
986.00	213.93
987.00	214.15
988.00	215.24
989.00	214.39
990.00	213.50
991.00	214.58
992.00	213.93
993.00	214.49
994.00	214.55
995.00	214.02
996.00	214.47
997.00	214.94
998.00	214.36
999.00	214.47
1000.00	213.65
>>>>>End Processed Spectral Data<<<<<
