SpectraSuite Data File
++++++++++++++++++++++++++++++++++++
Date: Fri Jan 27 16:23:44 CST 2012
User: Helimak
Dark Spectrum Present: No
Reference Spectrum Present: No
Number of Sampled Component Spectra: 1
Spectrometers: USB2G37154
Integration Time (usec): 150000 (USB2G37154)
Spectra Averaged: 200 (USB2G37154)
Boxcar Smoothing: 0 (USB2G37154)
Correct for Electrical Dark: No (USB2G37154)
Strobe/Lamp Enabled: No (USB2G37154)
Correct for Detector Non-linearity: No (USB2G37154)
Correct for Stray Light: No (USB2G37154)
Number of Pixels in Processed Spectrum: 651
>>>>>Begin Processed Spectral Data<<<<<
350.00	212.36
351.00	213.51
352.00	212.60
353.00	213.05
354.00	213.60
355.00	213.98
356.00	213.89
357.00	212.99
358.00	215.04
359.00	213.36
360.00	213.81
361.00	213.31
362.00	215.64
363.00	213.42
364.00	215.61
365.00	214.53
366.00	213.94
367.00	214.55
368.00	214.14
369.00	214.58
370.00	214.62
371.00	214.10
372.00	214.81
373.00	214.75
374.00	215.59
375.00	217.15
376.00	214.88
377.00	215.37
378.00	217.11
379.00	215.04
380.00	215.17
381.00	215.36
382.00	215.47
383.00	217.08
384.00	215.29
385.00	215.86
386.00	215.35
387.00	216.41
388.00	215.17
389.00	215.40
390.00	215.84
391.00	215.92
392.00	215.80
393.00	215.74
394.00	216.69
395.00	215.88
396.00	215.60
397.00	216.22
398.00	215.73
399.00	216.36
400.00	216.24
401.00	215.51
402.00	216.53
403.00	216.63
404.00	216.72
405.00	216.72
406.00	216.07
407.00	216.33
408.00	216.25
409.00	216.28
410.00	215.82
411.00	216.04
412.00	216.31
413.00	216.48
414.00	216.14
415.00	216.96
416.00	216.61
417.00	217.05
418.00	216.66
419.00	216.52
420.00	216.96
421.00	216.23
422.00	216.75
423.00	216.00
424.00	216.55
425.00	216.60
426.00	216.57
427.00	218.62
428.00	216.26
429.00	216.60
430.00	216.38
431.00	216.10
432.00	219.60
433.00	217.38
434.00	216.82
435.00	218.13
436.00	218.15
437.00	221.04
438.00	216.62
439.00	216.72
440.00	216.78
441.00	216.94
442.00	216.23
443.00	216.55
444.00	215.98
445.00	216.53
446.00	216.95
447.00	216.46
448.00	216.62
449.00	216.96
450.00	216.37
451.00	216.84
452.00	216.39
453.00	216.51
454.00	216.89
455.00	216.87
456.00	216.69
457.00	216.56
458.00	216.53
459.00	216.04
460.00	216.89
461.00	216.21
462.00	216.77
463.00	216.86
464.00	216.81
465.00	219.66
466.00	219.78
467.00	216.05
468.00	216.45
469.00	216.76
470.00	215.96
471.00	216.00
472.00	216.68
473.00	216.64
474.00	216.62
475.00	216.32
476.00	215.85
477.00	215.34
478.00	215.63
479.00	215.89
480.00	216.48
481.00	216.17
482.00	216.43
483.00	216.40
484.00	216.51
485.00	216.36
486.00	217.25
487.00	216.34
488.00	216.87
489.00	216.98
490.00	217.10
491.00	216.27
492.00	217.41
493.00	217.36
494.00	216.21
495.00	216.07
496.00	216.88
497.00	216.01
498.00	215.98
499.00	215.78
500.00	215.77
501.00	215.92
502.00	215.98
503.00	216.13
504.00	216.63
505.00	215.72
506.00	216.29
507.00	216.95
508.00	215.99
509.00	216.13
510.00	215.97
511.00	217.02
512.00	216.10
513.00	215.92
514.00	215.59
515.00	215.45
516.00	215.56
517.00	215.58
518.00	215.88
519.00	216.35
520.00	216.55
521.00	215.70
522.00	216.40
523.00	214.95
524.00	215.24
525.00	215.88
526.00	217.31
527.00	215.33
528.00	215.88
529.00	216.77
530.00	215.17
531.00	215.13
532.00	215.58
533.00	215.29
534.00	215.35
535.00	215.63
536.00	215.13
537.00	215.44
538.00	216.11
539.00	215.53
540.00	216.56
541.00	216.62
542.00	219.35
543.00	219.39
544.00	219.55
545.00	218.39
546.00	219.14
547.00	218.44
548.00	215.87
549.00	216.03
550.00	215.90
551.00	215.90
552.00	215.68
553.00	215.50
554.00	216.07
555.00	215.35
556.00	216.07
557.00	214.65
558.00	215.21
559.00	215.21
560.00	216.64
561.00	215.78
562.00	215.07
563.00	215.41
564.00	215.41
565.00	215.62
566.00	215.70
567.00	216.43
568.00	215.46
569.00	214.59
570.00	218.21
571.00	222.81
572.00	215.48
573.00	218.05
574.00	217.20
575.00	215.22
576.00	215.32
577.00	215.31
578.00	215.18
579.00	215.74
580.00	215.25
581.00	215.44
582.00	215.78
583.00	216.28
584.00	216.22
585.00	215.74
586.00	215.96
587.00	216.36
588.00	216.21
589.00	215.42
590.00	215.73
591.00	215.88
592.00	215.06
593.00	215.60
594.00	215.80
595.00	214.80
596.00	215.36
597.00	215.35
598.00	216.06
599.00	215.92
600.00	214.89
601.00	215.13
602.00	214.87
603.00	215.78
604.00	214.48
605.00	215.86
606.00	215.22
607.00	215.18
608.00	215.01
609.00	215.09
610.00	215.89
611.00	219.79
612.00	219.36
613.00	218.10
614.00	215.96
615.00	215.89
616.00	215.53
617.00	215.20
618.00	217.49
619.00	225.42
620.00	215.47
621.00	217.13
622.00	215.50
623.00	215.14
624.00	214.83
625.00	215.08
626.00	214.69
627.00	215.16
628.00	215.86
629.00	216.68
630.00	214.64
631.00	215.98
632.00	215.16
633.00	215.47
634.00	214.99
635.00	216.07
636.00	216.08
637.00	214.90
638.00	215.17
639.00	214.86
640.00	216.75
641.00	215.00
642.00	214.78
643.00	214.86
644.00	214.86
645.00	214.88
646.00	216.62
647.00	214.99
648.00	214.18
649.00	215.29
650.00	214.31
651.00	214.46
652.00	214.72
653.00	214.66
654.00	215.94
655.00	215.01
656.00	215.00
657.00	215.39
658.00	215.79
659.00	215.27
660.00	214.98
661.00	214.57
662.00	214.35
663.00	214.30
664.00	219.06
665.00	215.47
666.00	214.55
667.00	216.22
668.00	217.17
669.00	215.10
670.00	214.26
671.00	214.33
672.00	214.47
673.00	215.43
674.00	214.60
675.00	214.87
676.00	215.03
677.00	214.40
678.00	214.73
679.00	214.80
680.00	215.67
681.00	217.26
682.00	218.23
683.00	214.66
684.00	219.51
685.00	218.17
686.00	214.48
687.00	214.64
688.00	214.30
689.00	214.80
690.00	214.30
691.00	215.32
692.00	214.68
693.00	214.24
694.00	214.36
695.00	214.09
696.00	215.12
697.00	216.77
698.00	215.12
699.00	215.03
700.00	214.36
701.00	214.41
702.00	214.38
703.00	215.16
704.00	215.11
705.00	214.59
706.00	214.97
707.00	214.73
708.00	214.37
709.00	215.60
710.00	214.70
711.00	214.29
712.00	214.76
713.00	213.96
714.00	214.79
715.00	214.92
716.00	214.32
717.00	214.02
718.00	214.74
719.00	214.43
720.00	215.24
721.00	214.48
722.00	214.05
723.00	215.40
724.00	215.35
725.00	225.31
726.00	214.02
727.00	214.57
728.00	215.30
729.00	214.33
730.00	214.55
731.00	215.87
732.00	214.48
733.00	215.09
734.00	215.45
735.00	214.52
736.00	214.15
737.00	214.67
738.00	214.51
739.00	215.47
740.00	214.70
741.00	214.45
742.00	215.21
743.00	214.53
744.00	214.19
745.00	220.00
746.00	214.23
747.00	214.21
748.00	214.33
749.00	214.57
750.00	214.14
751.00	214.22
752.00	213.82
753.00	214.56
754.00	214.55
755.00	214.41
756.00	214.47
757.00	215.96
758.00	216.04
759.00	216.81
760.00	215.28
761.00	214.45
762.00	215.46
763.00	218.43
764.00	214.11
765.00	214.64
766.00	214.14
767.00	214.69
768.00	214.66
769.00	214.52
770.00	214.55
771.00	214.76
772.00	214.23
773.00	214.37
774.00	214.27
775.00	217.21
776.00	214.45
777.00	214.11
778.00	214.92
779.00	217.29
780.00	214.29
781.00	214.13
782.00	214.28
783.00	214.11
784.00	214.49
785.00	214.73
786.00	214.75
787.00	215.33
788.00	214.57
789.00	216.26
790.00	214.72
791.00	214.63
792.00	214.08
793.00	213.76
794.00	214.58
795.00	214.21
796.00	214.04
797.00	214.25
798.00	215.52
799.00	214.84
800.00	214.77
801.00	214.57
802.00	214.76
803.00	216.77
804.00	213.44
805.00	213.75
806.00	215.31
807.00	214.16
808.00	215.67
809.00	215.49
810.00	215.45
811.00	214.42
812.00	214.86
813.00	215.36
814.00	215.43
815.00	214.48
816.00	214.60
817.00	216.75
818.00	214.44
819.00	215.29
820.00	214.45
821.00	214.11
822.00	215.42
823.00	214.98
824.00	214.13
825.00	219.39
826.00	215.53
827.00	214.60
828.00	214.32
829.00	215.40
830.00	214.74
831.00	215.06
832.00	214.59
833.00	214.78
834.00	214.20
835.00	215.28
836.00	214.65
837.00	214.81
838.00	214.55
839.00	214.16
840.00	214.99
841.00	214.75
842.00	215.22
843.00	216.16
844.00	214.32
845.00	214.33
846.00	214.40
847.00	215.39
848.00	214.15
849.00	214.38
850.00	214.72
851.00	214.12
852.00	215.17
853.00	215.44
854.00	215.02
855.00	214.49
856.00	219.66
857.00	214.83
858.00	216.29
859.00	214.79
860.00	214.06
861.00	216.56
862.00	214.23
863.00	213.91
864.00	216.49
865.00	214.84
866.00	214.16
867.00	214.59
868.00	214.94
869.00	214.39
870.00	214.45
871.00	214.55
872.00	215.28
873.00	214.71
874.00	213.97
875.00	214.30
876.00	214.80
877.00	213.87
878.00	214.52
879.00	214.42
880.00	214.66
881.00	214.46
882.00	214.44
883.00	214.20
884.00	213.63
885.00	214.10
886.00	214.20
887.00	215.06
888.00	214.01
889.00	214.60
890.00	215.24
891.00	216.34
892.00	215.58
893.00	214.42
894.00	214.15
895.00	216.91
896.00	214.31
897.00	213.73
898.00	214.25
899.00	214.10
900.00	215.16
901.00	214.37
902.00	214.02
903.00	217.32
904.00	213.65
905.00	214.26
906.00	216.84
907.00	214.72
908.00	214.42
909.00	213.80
910.00	214.32
911.00	214.46
912.00	214.75
913.00	214.43
914.00	215.16
915.00	214.27
916.00	214.81
917.00	215.14
918.00	214.68
919.00	215.51
920.00	214.41
921.00	215.46
922.00	214.07
923.00	215.20
924.00	214.35
925.00	215.43
926.00	214.64
927.00	214.64
928.00	213.56
929.00	214.28
930.00	214.67
931.00	213.95
932.00	214.06
933.00	214.73
934.00	213.98
935.00	214.04
936.00	213.96
937.00	213.97
938.00	215.24
939.00	214.80
940.00	214.67
941.00	215.39
942.00	216.08
943.00	214.79
944.00	213.99
945.00	217.45
946.00	214.16
947.00	214.82
948.00	214.14
949.00	214.62
950.00	214.67
951.00	214.88
952.00	213.99
953.00	214.65
954.00	214.12
955.00	215.72
956.00	214.42
957.00	214.79
958.00	214.98
959.00	214.86
960.00	214.25
961.00	214.28
962.00	214.43
963.00	214.45
964.00	214.23
965.00	213.77
966.00	214.12
967.00	215.12
968.00	214.93
969.00	214.31
970.00	214.35
971.00	215.40
972.00	214.65
973.00	216.11
974.00	215.57
975.00	214.49
976.00	215.78
977.00	214.39
978.00	214.72
979.00	214.77
980.00	213.91
981.00	214.30
982.00	215.11
983.00	216.25
984.00	214.33
985.00	215.62
986.00	214.56
987.00	214.74
988.00	215.78
989.00	214.96
990.00	214.24
991.00	214.99
992.00	214.58
993.00	215.13
994.00	214.89
995.00	214.47
996.00	214.57
997.00	215.05
998.00	214.84
999.00	214.96
1000.00	214.15
>>>>>End Processed Spectral Data<<<<<
