SpectraSuite Data File
++++++++++++++++++++++++++++++++++++
Date: Fri Jan 27 16:43:42 CST 2012
User: Helimak
Dark Spectrum Present: No
Reference Spectrum Present: No
Number of Sampled Component Spectra: 1
Spectrometers: USB2G37154
Integration Time (usec): 150000 (USB2G37154)
Spectra Averaged: 200 (USB2G37154)
Boxcar Smoothing: 0 (USB2G37154)
Correct for Electrical Dark: No (USB2G37154)
Strobe/Lamp Enabled: No (USB2G37154)
Correct for Detector Non-linearity: No (USB2G37154)
Correct for Stray Light: No (USB2G37154)
Number of Pixels in Processed Spectrum: 651
>>>>>Begin Processed Spectral Data<<<<<
350.00	212.26
351.00	212.97
352.00	212.28
353.00	212.43
354.00	213.40
355.00	213.92
356.00	213.63
357.00	212.71
358.00	214.72
359.00	213.27
360.00	213.75
361.00	213.44
362.00	215.60
363.00	213.78
364.00	215.42
365.00	214.19
366.00	214.20
367.00	213.90
368.00	213.86
369.00	214.37
370.00	214.92
371.00	214.08
372.00	214.98
373.00	214.94
374.00	215.51
375.00	216.89
376.00	214.68
377.00	215.10
378.00	216.80
379.00	214.99
380.00	215.11
381.00	215.30
382.00	215.48
383.00	216.92
384.00	214.86
385.00	215.55
386.00	215.20
387.00	216.04
388.00	214.90
389.00	215.07
390.00	215.45
391.00	216.01
392.00	215.36
393.00	215.63
394.00	216.73
395.00	215.90
396.00	215.75
397.00	216.03
398.00	215.58
399.00	216.19
400.00	216.01
401.00	215.27
402.00	216.05
403.00	216.41
404.00	216.26
405.00	216.64
406.00	216.17
407.00	216.06
408.00	216.00
409.00	216.13
410.00	216.05
411.00	215.70
412.00	216.08
413.00	216.34
414.00	215.97
415.00	216.75
416.00	216.41
417.00	216.92
418.00	216.77
419.00	216.38
420.00	216.53
421.00	216.41
422.00	216.47
423.00	216.10
424.00	216.22
425.00	216.33
426.00	216.09
427.00	218.78
428.00	216.16
429.00	216.48
430.00	216.28
431.00	216.25
432.00	219.46
433.00	217.56
434.00	216.68
435.00	218.05
436.00	218.00
437.00	220.83
438.00	216.50
439.00	216.42
440.00	216.50
441.00	217.01
442.00	216.16
443.00	216.52
444.00	216.13
445.00	216.72
446.00	217.13
447.00	216.35
448.00	216.56
449.00	216.43
450.00	215.95
451.00	216.89
452.00	215.86
453.00	216.55
454.00	216.31
455.00	216.65
456.00	216.81
457.00	216.04
458.00	216.58
459.00	216.03
460.00	216.61
461.00	216.33
462.00	216.77
463.00	216.41
464.00	216.71
465.00	219.39
466.00	219.49
467.00	215.72
468.00	216.20
469.00	216.58
470.00	216.18
471.00	216.08
472.00	216.69
473.00	216.22
474.00	216.68
475.00	215.98
476.00	216.01
477.00	215.68
478.00	215.72
479.00	215.56
480.00	216.26
481.00	216.32
482.00	216.22
483.00	216.47
484.00	216.48
485.00	216.30
486.00	217.03
487.00	216.21
488.00	216.70
489.00	216.60
490.00	216.91
491.00	216.51
492.00	217.02
493.00	217.13
494.00	216.12
495.00	215.91
496.00	216.75
497.00	215.68
498.00	215.59
499.00	215.83
500.00	215.67
501.00	215.89
502.00	215.70
503.00	215.67
504.00	216.58
505.00	215.60
506.00	216.14
507.00	216.45
508.00	216.07
509.00	215.70
510.00	215.62
511.00	216.35
512.00	216.04
513.00	215.19
514.00	215.42
515.00	215.85
516.00	215.53
517.00	215.57
518.00	215.60
519.00	216.14
520.00	216.41
521.00	215.86
522.00	216.13
523.00	214.83
524.00	215.05
525.00	216.32
526.00	216.72
527.00	215.18
528.00	215.55
529.00	216.51
530.00	214.87
531.00	214.86
532.00	215.38
533.00	215.26
534.00	214.88
535.00	215.69
536.00	215.06
537.00	215.33
538.00	215.85
539.00	215.65
540.00	216.28
541.00	216.61
542.00	219.30
543.00	219.82
544.00	219.59
545.00	218.39
546.00	219.03
547.00	218.44
548.00	215.92
549.00	215.73
550.00	215.53
551.00	216.07
552.00	215.51
553.00	215.26
554.00	215.73
555.00	214.89
556.00	215.79
557.00	214.87
558.00	215.40
559.00	214.91
560.00	216.69
561.00	215.69
562.00	214.74
563.00	215.38
564.00	214.81
565.00	215.52
566.00	215.47
567.00	216.38
568.00	215.18
569.00	214.45
570.00	218.18
571.00	222.62
572.00	215.31
573.00	217.45
574.00	217.09
575.00	215.08
576.00	215.21
577.00	215.60
578.00	214.61
579.00	215.45
580.00	215.50
581.00	215.58
582.00	215.82
583.00	215.93
584.00	216.33
585.00	215.86
586.00	216.10
587.00	216.33
588.00	215.80
589.00	215.54
590.00	215.63
591.00	215.38
592.00	215.01
593.00	215.54
594.00	215.26
595.00	214.45
596.00	214.57
597.00	215.41
598.00	216.39
599.00	215.87
600.00	214.78
601.00	215.37
602.00	214.83
603.00	215.56
604.00	214.83
605.00	215.37
606.00	215.06
607.00	214.99
608.00	214.82
609.00	214.95
610.00	215.77
611.00	219.53
612.00	219.19
613.00	217.95
614.00	215.69
615.00	215.77
616.00	215.61
617.00	214.89
618.00	217.40
619.00	221.48
620.00	215.35
621.00	217.09
622.00	215.47
623.00	214.95
624.00	214.91
625.00	214.72
626.00	214.72
627.00	214.59
628.00	215.71
629.00	216.63
630.00	214.45
631.00	216.05
632.00	215.01
633.00	215.20
634.00	214.86
635.00	215.63
636.00	216.07
637.00	214.46
638.00	215.05
639.00	214.45
640.00	216.46
641.00	214.84
642.00	214.57
643.00	214.92
644.00	214.59
645.00	214.72
646.00	216.51
647.00	214.65
648.00	214.29
649.00	215.05
650.00	214.49
651.00	214.65
652.00	214.50
653.00	214.27
654.00	215.64
655.00	214.90
656.00	214.95
657.00	215.16
658.00	215.52
659.00	214.99
660.00	214.81
661.00	214.37
662.00	214.07
663.00	214.27
664.00	219.16
665.00	215.17
666.00	214.75
667.00	216.17
668.00	217.06
669.00	214.45
670.00	214.44
671.00	214.21
672.00	214.47
673.00	214.90
674.00	214.37
675.00	214.92
676.00	215.25
677.00	215.04
678.00	214.78
679.00	214.66
680.00	215.20
681.00	216.97
682.00	218.08
683.00	214.74
684.00	219.55
685.00	218.32
686.00	214.40
687.00	214.41
688.00	214.02
689.00	214.46
690.00	214.43
691.00	215.43
692.00	214.26
693.00	214.23
694.00	213.93
695.00	213.90
696.00	214.80
697.00	216.66
698.00	215.00
699.00	215.37
700.00	214.35
701.00	214.68
702.00	214.55
703.00	215.01
704.00	215.15
705.00	214.53
706.00	214.66
707.00	214.65
708.00	214.18
709.00	215.67
710.00	214.55
711.00	214.02
712.00	214.64
713.00	214.28
714.00	214.55
715.00	214.73
716.00	214.25
717.00	213.84
718.00	214.04
719.00	214.21
720.00	215.03
721.00	214.46
722.00	214.15
723.00	214.93
724.00	215.30
725.00	225.13
726.00	213.77
727.00	214.12
728.00	214.98
729.00	214.45
730.00	214.22
731.00	215.02
732.00	214.49
733.00	214.71
734.00	214.96
735.00	214.40
736.00	214.00
737.00	214.72
738.00	214.13
739.00	215.25
740.00	214.66
741.00	213.89
742.00	214.66
743.00	214.68
744.00	214.10
745.00	219.48
746.00	214.03
747.00	213.90
748.00	213.99
749.00	214.28
750.00	214.24
751.00	214.07
752.00	213.77
753.00	214.12
754.00	214.62
755.00	214.47
756.00	214.21
757.00	215.58
758.00	215.94
759.00	216.40
760.00	215.08
761.00	214.15
762.00	215.59
763.00	218.09
764.00	213.75
765.00	214.72
766.00	214.23
767.00	214.14
768.00	214.27
769.00	214.41
770.00	214.42
771.00	214.51
772.00	214.00
773.00	214.40
774.00	213.85
775.00	217.30
776.00	214.66
777.00	214.43
778.00	214.59
779.00	217.41
780.00	214.11
781.00	214.03
782.00	214.15
783.00	214.23
784.00	214.50
785.00	214.48
786.00	214.33
787.00	214.72
788.00	214.30
789.00	216.33
790.00	214.75
791.00	214.55
792.00	214.32
793.00	213.95
794.00	214.63
795.00	213.72
796.00	213.92
797.00	214.03
798.00	215.90
799.00	214.77
800.00	214.36
801.00	214.41
802.00	214.73
803.00	216.42
804.00	213.45
805.00	213.57
806.00	215.63
807.00	213.95
808.00	215.50
809.00	215.37
810.00	214.96
811.00	214.05
812.00	214.85
813.00	215.22
814.00	215.14
815.00	214.69
816.00	214.22
817.00	216.79
818.00	214.23
819.00	215.04
820.00	214.48
821.00	214.00
822.00	215.10
823.00	214.96
824.00	214.06
825.00	219.21
826.00	215.55
827.00	214.45
828.00	213.84
829.00	214.49
830.00	214.40
831.00	214.78
832.00	214.43
833.00	214.48
834.00	213.92
835.00	215.37
836.00	214.30
837.00	214.88
838.00	214.48
839.00	214.33
840.00	214.92
841.00	214.68
842.00	215.15
843.00	216.79
844.00	213.92
845.00	214.11
846.00	214.09
847.00	215.18
848.00	213.94
849.00	213.45
850.00	214.49
851.00	214.02
852.00	214.76
853.00	215.10
854.00	214.56
855.00	214.48
856.00	219.39
857.00	214.55
858.00	216.05
859.00	214.77
860.00	214.08
861.00	216.14
862.00	214.11
863.00	213.94
864.00	216.33
865.00	215.11
866.00	214.43
867.00	214.33
868.00	214.78
869.00	214.46
870.00	214.23
871.00	214.16
872.00	214.49
873.00	214.86
874.00	213.74
875.00	214.23
876.00	214.60
877.00	213.95
878.00	214.30
879.00	213.95
880.00	214.43
881.00	214.56
882.00	214.25
883.00	214.27
884.00	214.17
885.00	214.18
886.00	214.04
887.00	215.04
888.00	214.00
889.00	214.11
890.00	215.28
891.00	216.18
892.00	215.25
893.00	214.44
894.00	214.38
895.00	216.71
896.00	214.06
897.00	213.79
898.00	214.03
899.00	214.06
900.00	214.70
901.00	214.27
902.00	214.21
903.00	217.34
904.00	214.19
905.00	214.18
906.00	216.51
907.00	214.61
908.00	214.20
909.00	213.59
910.00	213.90
911.00	214.23
912.00	214.77
913.00	214.30
914.00	214.79
915.00	214.26
916.00	214.44
917.00	215.11
918.00	214.40
919.00	215.42
920.00	214.17
921.00	215.55
922.00	214.17
923.00	214.73
924.00	214.42
925.00	215.01
926.00	214.62
927.00	214.82
928.00	214.03
929.00	214.42
930.00	214.54
931.00	213.88
932.00	213.87
933.00	214.46
934.00	214.03
935.00	213.72
936.00	213.80
937.00	213.90
938.00	215.10
939.00	214.88
940.00	214.20
941.00	214.85
942.00	215.85
943.00	214.65
944.00	214.02
945.00	217.51
946.00	213.92
947.00	214.60
948.00	213.95
949.00	214.49
950.00	214.45
951.00	214.51
952.00	213.71
953.00	214.69
954.00	213.45
955.00	215.17
956.00	214.41
957.00	214.77
958.00	214.45
959.00	214.48
960.00	214.43
961.00	214.27
962.00	214.52
963.00	214.50
964.00	214.34
965.00	213.55
966.00	213.80
967.00	214.90
968.00	214.41
969.00	214.15
970.00	214.18
971.00	215.16
972.00	214.54
973.00	216.35
974.00	215.35
975.00	214.31
976.00	215.67
977.00	213.79
978.00	214.95
979.00	215.30
980.00	213.83
981.00	214.12
982.00	215.04
983.00	216.30
984.00	214.36
985.00	215.51
986.00	214.16
987.00	214.55
988.00	215.34
989.00	214.19
990.00	213.96
991.00	214.63
992.00	214.14
993.00	215.04
994.00	214.64
995.00	214.28
996.00	214.32
997.00	214.80
998.00	214.50
999.00	214.84
1000.00	213.82
>>>>>End Processed Spectral Data<<<<<
