SpectraSuite Data File
++++++++++++++++++++++++++++++++++++
Date: Fri Jan 27 17:01:37 CST 2012
User: Helimak
Dark Spectrum Present: No
Reference Spectrum Present: No
Number of Sampled Component Spectra: 1
Spectrometers: USB2G37154
Integration Time (usec): 150000 (USB2G37154)
Spectra Averaged: 200 (USB2G37154)
Boxcar Smoothing: 0 (USB2G37154)
Correct for Electrical Dark: No (USB2G37154)
Strobe/Lamp Enabled: No (USB2G37154)
Correct for Detector Non-linearity: No (USB2G37154)
Correct for Stray Light: No (USB2G37154)
Number of Pixels in Processed Spectrum: 651
>>>>>Begin Processed Spectral Data<<<<<
350.00	212.23
351.00	212.96
352.00	212.42
353.00	212.66
354.00	213.13
355.00	213.91
356.00	213.45
357.00	213.06
358.00	214.75
359.00	213.38
360.00	213.66
361.00	213.41
362.00	215.54
363.00	213.52
364.00	215.51
365.00	214.25
366.00	214.09
367.00	213.87
368.00	214.08
369.00	214.48
370.00	214.77
371.00	214.05
372.00	214.96
373.00	214.75
374.00	215.65
375.00	217.00
376.00	214.42
377.00	215.15
378.00	217.00
379.00	215.06
380.00	214.91
381.00	214.98
382.00	215.56
383.00	216.88
384.00	215.28
385.00	215.49
386.00	214.86
387.00	216.00
388.00	215.24
389.00	215.08
390.00	215.77
391.00	215.76
392.00	215.63
393.00	215.93
394.00	216.39
395.00	215.90
396.00	215.80
397.00	215.61
398.00	215.71
399.00	215.99
400.00	216.09
401.00	215.64
402.00	216.40
403.00	216.48
404.00	216.36
405.00	216.43
406.00	216.21
407.00	216.39
408.00	216.20
409.00	216.41
410.00	216.04
411.00	215.87
412.00	216.37
413.00	216.47
414.00	216.30
415.00	216.84
416.00	216.45
417.00	216.91
418.00	216.95
419.00	216.22
420.00	216.57
421.00	216.28
422.00	216.72
423.00	216.69
424.00	216.03
425.00	216.54
426.00	216.28
427.00	218.54
428.00	216.16
429.00	216.44
430.00	215.93
431.00	216.07
432.00	219.27
433.00	217.45
434.00	216.68
435.00	217.89
436.00	217.82
437.00	220.72
438.00	216.32
439.00	216.28
440.00	216.55
441.00	217.28
442.00	216.17
443.00	216.39
444.00	216.00
445.00	216.56
446.00	216.87
447.00	216.53
448.00	216.66
449.00	216.32
450.00	215.98
451.00	216.50
452.00	216.02
453.00	216.36
454.00	216.45
455.00	216.48
456.00	216.64
457.00	216.52
458.00	216.54
459.00	216.32
460.00	216.89
461.00	216.67
462.00	216.65
463.00	216.44
464.00	216.90
465.00	219.68
466.00	219.50
467.00	215.88
468.00	216.08
469.00	216.43
470.00	216.18
471.00	215.81
472.00	216.32
473.00	216.41
474.00	216.78
475.00	215.77
476.00	216.02
477.00	215.58
478.00	215.70
479.00	215.74
480.00	216.43
481.00	216.13
482.00	216.21
483.00	216.37
484.00	216.43
485.00	216.33
486.00	217.07
487.00	215.85
488.00	216.47
489.00	216.33
490.00	217.08
491.00	216.50
492.00	217.13
493.00	216.66
494.00	216.01
495.00	215.72
496.00	217.07
497.00	215.37
498.00	215.64
499.00	215.97
500.00	215.73
501.00	215.60
502.00	215.87
503.00	215.54
504.00	216.28
505.00	215.61
506.00	215.93
507.00	216.55
508.00	216.00
509.00	215.72
510.00	215.72
511.00	216.73
512.00	216.06
513.00	215.65
514.00	215.57
515.00	215.50
516.00	215.26
517.00	215.67
518.00	215.66
519.00	216.07
520.00	216.49
521.00	215.97
522.00	216.07
523.00	214.95
524.00	214.92
525.00	216.15
526.00	216.77
527.00	215.32
528.00	215.65
529.00	216.51
530.00	215.00
531.00	214.68
532.00	215.03
533.00	215.15
534.00	215.18
535.00	215.28
536.00	215.04
537.00	215.49
538.00	215.83
539.00	215.70
540.00	216.64
541.00	216.55
542.00	218.90
543.00	219.41
544.00	219.22
545.00	218.12
546.00	218.79
547.00	218.05
548.00	215.66
549.00	215.90
550.00	215.51
551.00	216.13
552.00	215.29
553.00	215.34
554.00	215.72
555.00	215.14
556.00	215.77
557.00	214.72
558.00	215.21
559.00	215.05
560.00	216.42
561.00	215.86
562.00	214.76
563.00	214.79
564.00	214.96
565.00	215.32
566.00	215.55
567.00	215.85
568.00	215.35
569.00	214.58
570.00	218.15
571.00	222.35
572.00	215.26
573.00	217.58
574.00	217.21
575.00	214.75
576.00	215.13
577.00	215.11
578.00	215.04
579.00	215.87
580.00	215.26
581.00	215.28
582.00	215.66
583.00	215.98
584.00	216.06
585.00	215.83
586.00	215.77
587.00	215.93
588.00	216.01
589.00	215.79
590.00	215.28
591.00	215.40
592.00	214.73
593.00	215.42
594.00	215.34
595.00	214.45
596.00	214.90
597.00	215.36
598.00	215.77
599.00	215.82
600.00	214.82
601.00	214.87
602.00	214.57
603.00	215.74
604.00	214.75
605.00	215.40
606.00	214.71
607.00	215.17
608.00	214.55
609.00	214.94
610.00	215.52
611.00	219.06
612.00	218.59
613.00	217.74
614.00	215.75
615.00	215.63
616.00	215.15
617.00	214.89
618.00	217.40
619.00	225.11
620.00	215.52
621.00	216.89
622.00	215.41
623.00	214.96
624.00	215.09
625.00	214.48
626.00	214.61
627.00	214.64
628.00	215.46
629.00	216.72
630.00	214.59
631.00	216.00
632.00	215.08
633.00	215.23
634.00	214.66
635.00	215.38
636.00	216.08
637.00	214.67
638.00	215.03
639.00	214.73
640.00	216.59
641.00	214.93
642.00	214.64
643.00	214.69
644.00	214.93
645.00	214.75
646.00	216.56
647.00	214.68
648.00	214.29
649.00	215.27
650.00	214.44
651.00	214.56
652.00	214.84
653.00	214.64
654.00	215.42
655.00	214.73
656.00	214.92
657.00	215.48
658.00	215.12
659.00	214.95
660.00	214.53
661.00	214.44
662.00	214.20
663.00	214.10
664.00	219.18
665.00	215.47
666.00	214.63
667.00	216.27
668.00	217.02
669.00	214.38
670.00	214.09
671.00	214.14
672.00	214.55
673.00	214.94
674.00	214.33
675.00	214.63
676.00	214.92
677.00	214.73
678.00	214.60
679.00	214.71
680.00	215.22
681.00	216.82
682.00	218.10
683.00	214.85
684.00	219.30
685.00	218.23
686.00	214.54
687.00	214.31
688.00	213.95
689.00	214.58
690.00	214.42
691.00	214.92
692.00	214.50
693.00	213.91
694.00	214.20
695.00	213.99
696.00	215.06
697.00	216.72
698.00	214.95
699.00	214.89
700.00	213.87
701.00	213.83
702.00	214.26
703.00	214.62
704.00	214.75
705.00	214.36
706.00	214.74
707.00	214.69
708.00	214.24
709.00	215.43
710.00	214.63
711.00	214.27
712.00	214.79
713.00	214.15
714.00	214.58
715.00	214.88
716.00	214.25
717.00	214.01
718.00	214.19
719.00	214.06
720.00	215.07
721.00	214.44
722.00	214.33
723.00	214.84
724.00	215.45
725.00	225.44
726.00	213.83
727.00	214.06
728.00	215.42
729.00	214.40
730.00	214.35
731.00	215.44
732.00	214.64
733.00	214.55
734.00	215.54
735.00	214.23
736.00	214.14
737.00	214.43
738.00	214.13
739.00	215.30
740.00	214.39
741.00	213.83
742.00	214.41
743.00	214.32
744.00	213.91
745.00	219.88
746.00	213.74
747.00	214.34
748.00	213.85
749.00	214.37
750.00	214.16
751.00	214.13
752.00	213.60
753.00	214.15
754.00	214.15
755.00	214.47
756.00	214.24
757.00	215.37
758.00	216.31
759.00	216.38
760.00	215.10
761.00	214.05
762.00	215.37
763.00	218.14
764.00	213.97
765.00	214.30
766.00	214.04
767.00	214.52
768.00	214.45
769.00	214.34
770.00	213.70
771.00	214.66
772.00	213.97
773.00	214.52
774.00	214.02
775.00	217.25
776.00	214.42
777.00	214.04
778.00	214.71
779.00	217.53
780.00	214.43
781.00	214.00
782.00	214.58
783.00	213.98
784.00	214.46
785.00	214.51
786.00	214.62
787.00	214.48
788.00	214.51
789.00	216.25
790.00	214.33
791.00	214.59
792.00	213.99
793.00	214.24
794.00	213.95
795.00	214.04
796.00	213.45
797.00	213.86
798.00	215.68
799.00	214.93
800.00	214.87
801.00	214.35
802.00	214.70
803.00	216.06
804.00	213.45
805.00	213.60
806.00	215.18
807.00	214.25
808.00	215.67
809.00	215.26
810.00	215.20
811.00	214.54
812.00	214.63
813.00	214.88
814.00	214.90
815.00	214.38
816.00	214.21
817.00	216.59
818.00	214.28
819.00	214.72
820.00	214.19
821.00	213.91
822.00	215.00
823.00	214.91
824.00	213.91
825.00	219.20
826.00	214.95
827.00	214.48
828.00	213.96
829.00	214.63
830.00	214.41
831.00	214.86
832.00	214.33
833.00	214.87
834.00	213.93
835.00	215.35
836.00	214.74
837.00	214.66
838.00	214.54
839.00	213.90
840.00	214.78
841.00	214.26
842.00	215.17
843.00	215.99
844.00	214.39
845.00	214.41
846.00	214.28
847.00	215.00
848.00	213.84
849.00	213.76
850.00	214.42
851.00	213.86
852.00	214.73
853.00	215.27
854.00	214.17
855.00	214.44
856.00	219.61
857.00	214.60
858.00	216.13
859.00	214.38
860.00	213.98
861.00	216.22
862.00	214.11
863.00	213.94
864.00	216.38
865.00	214.78
866.00	214.15
867.00	214.40
868.00	215.13
869.00	214.52
870.00	214.33
871.00	214.41
872.00	214.87
873.00	214.66
874.00	213.87
875.00	213.96
876.00	214.60
877.00	213.82
878.00	214.29
879.00	213.88
880.00	214.19
881.00	213.95
882.00	214.44
883.00	214.13
884.00	213.72
885.00	214.05
886.00	213.91
887.00	214.66
888.00	214.21
889.00	214.60
890.00	215.07
891.00	215.90
892.00	215.45
893.00	214.24
894.00	214.06
895.00	216.58
896.00	214.05
897.00	213.81
898.00	214.13
899.00	214.07
900.00	214.83
901.00	214.32
902.00	213.96
903.00	217.52
904.00	213.98
905.00	213.95
906.00	216.42
907.00	214.85
908.00	214.05
909.00	213.46
910.00	213.88
911.00	214.23
912.00	214.76
913.00	214.33
914.00	215.01
915.00	214.02
916.00	214.77
917.00	214.97
918.00	214.34
919.00	215.31
920.00	214.29
921.00	215.48
922.00	213.91
923.00	215.18
924.00	214.11
925.00	215.02
926.00	214.46
927.00	214.82
928.00	213.61
929.00	214.45
930.00	214.54
931.00	214.07
932.00	213.99
933.00	214.33
934.00	213.80
935.00	213.97
936.00	213.93
937.00	213.78
938.00	215.11
939.00	214.56
940.00	214.10
941.00	215.00
942.00	215.92
943.00	214.67
944.00	213.91
945.00	217.23
946.00	214.10
947.00	214.25
948.00	214.09
949.00	214.19
950.00	214.50
951.00	214.81
952.00	214.00
953.00	214.93
954.00	213.77
955.00	215.40
956.00	214.54
957.00	214.46
958.00	214.72
959.00	214.54
960.00	214.52
961.00	213.90
962.00	214.52
963.00	214.59
964.00	214.40
965.00	213.68
966.00	213.98
967.00	214.89
968.00	214.79
969.00	214.18
970.00	214.33
971.00	215.41
972.00	214.57
973.00	216.42
974.00	215.09
975.00	214.45
976.00	215.49
977.00	213.90
978.00	214.65
979.00	214.77
980.00	213.96
981.00	213.95
982.00	214.80
983.00	215.88
984.00	214.35
985.00	215.55
986.00	214.28
987.00	214.41
988.00	215.48
989.00	214.60
990.00	213.89
991.00	214.95
992.00	214.30
993.00	215.01
994.00	214.62
995.00	214.49
996.00	214.61
997.00	214.92
998.00	214.64
999.00	214.80
1000.00	213.81
>>>>>End Processed Spectral Data<<<<<
