SpectraSuite Data File
++++++++++++++++++++++++++++++++++++
Date: Thu Oct 13 15:02:59 CDT 2011
User: Helimak
Dark Spectrum Present: No
Reference Spectrum Present: No
Number of Sampled Component Spectra: 1
Spectrometers: USB2G37154
Integration Time (usec): 500000 (USB2G37154)
Spectra Averaged: 1 (USB2G37154)
Boxcar Smoothing: 0 (USB2G37154)
Correct for Electrical Dark: No (USB2G37154)
Strobe/Lamp Enabled: No (USB2G37154)
Correct for Detector Non-linearity: No (USB2G37154)
Correct for Stray Light: No (USB2G37154)
Number of Pixels in Processed Spectrum: 651
>>>>>Begin Processed Spectral Data<<<<<
350.00	197.43
351.00	203.93
352.00	200.07
353.00	202.64
354.00	206.32
355.00	209.37
356.00	211.17
357.00	212.80
358.00	215.42
359.00	215.23
360.00	216.57
361.00	215.09
362.00	217.32
363.00	209.97
364.00	221.77
365.00	219.64
366.00	216.52
367.00	219.81
368.00	223.34
369.00	226.33
370.00	236.13
371.00	229.04
372.00	233.58
373.00	231.53
374.00	229.99
375.00	242.50
376.00	235.32
377.00	253.65
378.00	276.16
379.00	288.81
380.00	298.45
381.00	295.37
382.00	296.86
383.00	295.48
384.00	313.89
385.00	315.37
386.00	316.93
387.00	331.20
388.00	312.99
389.00	292.33
390.00	305.86
391.00	311.32
392.00	313.27
393.00	314.29
394.00	321.47
395.00	307.54
396.00	307.01
397.00	295.42
398.00	294.70
399.00	331.55
400.00	397.59
401.00	468.37
402.00	490.23
403.00	509.49
404.00	495.89
405.00	438.82
406.00	451.05
407.00	454.45
408.00	394.35
409.00	429.81
410.00	421.86
411.00	373.37
412.00	370.01
413.00	362.92
414.00	355.85
415.00	480.54
416.00	453.70
417.00	429.63
418.00	487.94
419.00	691.10
420.00	567.48
421.00	421.69
422.00	467.28
423.00	421.33
424.00	454.13
425.00	701.17
426.00	855.28
427.00	891.40
428.00	687.39
429.00	633.71
430.00	584.65
431.00	505.10
432.00	593.12
433.00	848.18
434.00	1433.40
435.00	878.28
436.00	627.19
437.00	594.68
438.00	505.49
439.00	582.14
440.00	543.20
441.00	552.13
442.00	866.80
443.00	588.81
444.00	439.81
445.00	398.96
446.00	390.12
447.00	436.65
448.00	438.30
449.00	444.85
450.00	499.69
451.00	500.94
452.00	519.87
453.00	573.37
454.00	740.70
455.00	660.02
456.00	686.65
457.00	756.17
458.00	866.54
459.00	719.02
460.00	999.94
461.00	736.20
462.00	546.89
463.00	486.23
464.00	460.55
465.00	582.38
466.00	525.82
467.00	485.10
468.00	511.44
469.00	528.76
470.00	509.86
471.00	533.63
472.00	644.42
473.00	663.03
474.00	538.52
475.00	512.37
476.00	669.46
477.00	524.29
478.00	467.10
479.00	500.24
480.00	1052.09
481.00	659.69
482.00	562.17
483.00	538.13
484.00	643.19
485.00	1070.57
486.00	1110.89
487.00	1590.21
488.00	1210.03
489.00	804.64
490.00	669.63
491.00	658.49
492.00	638.25
493.00	646.55
494.00	571.33
495.00	560.56
496.00	685.01
497.00	592.12
498.00	554.52
499.00	572.51
500.00	661.94
501.00	709.24
502.00	575.06
503.00	584.84
504.00	743.67
505.00	809.58
506.00	790.16
507.00	851.87
508.00	823.30
509.00	702.12
510.00	609.84
511.00	576.02
512.00	564.32
513.00	590.03
514.00	710.06
515.00	583.14
516.00	550.08
517.00	543.07
518.00	619.52
519.00	580.66
520.00	516.34
521.00	516.77
522.00	529.01
523.00	510.75
524.00	526.24
525.00	571.19
526.00	569.53
527.00	514.38
528.00	499.51
529.00	489.24
530.00	501.47
531.00	517.10
532.00	566.17
533.00	612.50
534.00	628.37
535.00	674.40
536.00	633.97
537.00	634.05
538.00	604.40
539.00	577.84
540.00	573.97
541.00	551.17
542.00	568.58
543.00	570.13
544.00	564.03
545.00	592.49
546.00	643.87
547.00	707.83
548.00	631.65
549.00	703.98
550.00	711.81
551.00	675.85
552.00	612.74
553.00	605.73
554.00	562.19
555.00	629.29
556.00	624.40
557.00	557.76
558.00	486.32
559.00	499.56
560.00	545.00
561.00	505.53
562.00	462.68
563.00	451.94
564.00	480.48
565.00	527.37
566.00	545.91
567.00	585.02
568.00	577.32
569.00	564.98
570.00	544.95
571.00	526.84
572.00	461.60
573.00	475.35
574.00	491.24
575.00	467.15
576.00	455.55
577.00	478.33
578.00	486.95
579.00	462.73
580.00	469.66
581.00	433.73
582.00	423.20
583.00	439.94
584.00	446.42
585.00	433.15
586.00	465.57
587.00	489.31
588.00	516.92
589.00	551.72
590.00	497.94
591.00	492.09
592.00	460.00
593.00	454.92
594.00	423.06
595.00	408.68
596.00	397.34
597.00	413.59
598.00	444.33
599.00	466.80
600.00	483.08
601.00	522.83
602.00	526.29
603.00	803.38
604.00	702.04
605.00	565.66
606.00	488.17
607.00	413.24
608.00	379.31
609.00	370.84
610.00	403.87
611.00	467.11
612.00	443.87
613.00	404.01
614.00	405.63
615.00	417.24
616.00	450.58
617.00	492.95
618.00	407.16
619.00	422.81
620.00	431.74
621.00	460.51
622.00	419.80
623.00	370.36
624.00	443.42
625.00	494.69
626.00	467.15
627.00	445.15
628.00	449.63
629.00	449.32
630.00	453.37
631.00	438.28
632.00	383.58
633.00	365.13
634.00	349.50
635.00	345.92
636.00	356.57
637.00	371.03
638.00	370.15
639.00	372.61
640.00	401.91
641.00	421.34
642.00	449.38
643.00	396.20
644.00	386.98
645.00	383.46
646.00	394.12
647.00	397.09
648.00	375.20
649.00	362.12
650.00	335.37
651.00	333.09
652.00	335.72
653.00	341.96
654.00	365.36
655.00	362.35
656.00	1451.37
657.00	1102.46
658.00	577.90
659.00	359.02
660.00	334.97
661.00	312.22
662.00	294.13
663.00	285.62
664.00	358.68
665.00	335.79
666.00	304.80
667.00	305.63
668.00	326.04
669.00	328.47
670.00	314.26
671.00	303.78
672.00	311.01
673.00	313.04
674.00	307.39
675.00	398.92
676.00	402.59
677.00	319.58
678.00	297.10
679.00	286.18
680.00	274.97
681.00	281.59
682.00	288.17
683.00	278.84
684.00	294.20
685.00	291.34
686.00	265.73
687.00	327.56
688.00	306.88
689.00	311.60
690.00	278.97
691.00	285.86
692.00	289.21
693.00	299.44
694.00	355.49
695.00	340.18
696.00	427.03
697.00	721.84
698.00	420.31
699.00	348.27
700.00	313.67
701.00	314.27
702.00	308.20
703.00	388.56
704.00	360.93
705.00	313.35
706.00	300.42
707.00	552.74
708.00	375.64
709.00	301.93
710.00	260.55
711.00	278.67
712.00	272.62
713.00	262.86
714.00	265.78
715.00	305.75
716.00	288.84
717.00	261.01
718.00	255.50
719.00	250.07
720.00	263.68
721.00	278.20
722.00	273.65
723.00	278.60
724.00	283.01
725.00	329.51
726.00	277.89
727.00	311.49
728.00	342.95
729.00	288.74
730.00	261.45
731.00	263.98
732.00	261.64
733.00	251.09
734.00	250.27
735.00	262.66
736.00	293.38
737.00	326.52
738.00	447.92
739.00	621.99
740.00	350.98
741.00	275.38
742.00	245.98
743.00	250.04
744.00	263.93
745.00	270.03
746.00	231.27
747.00	238.03
748.00	243.33
749.00	251.57
750.00	414.92
751.00	1306.29
752.00	956.00
753.00	483.38
754.00	301.04
755.00	243.69
756.00	237.32
757.00	241.58
758.00	253.59
759.00	247.24
760.00	252.06
761.00	240.71
762.00	245.21
763.00	359.82
764.00	2248.75
765.00	1012.52
766.00	491.09
767.00	278.35
768.00	234.02
769.00	213.31
770.00	218.16
771.00	223.19
772.00	267.42
773.00	628.58
774.00	363.89
775.00	283.80
776.00	225.58
777.00	329.21
778.00	902.21
779.00	471.93
780.00	306.88
781.00	233.38
782.00	223.40
783.00	219.01
784.00	227.29
785.00	235.22
786.00	245.64
787.00	246.47
788.00	249.68
789.00	268.94
790.00	265.73
791.00	263.81
792.00	256.26
793.00	249.98
794.00	243.93
795.00	541.62
796.00	526.55
797.00	329.29
798.00	272.05
799.00	238.58
800.00	235.73
801.00	485.21
802.00	838.11
803.00	488.62
804.00	315.36
805.00	244.39
806.00	233.81
807.00	221.92
808.00	232.93
809.00	234.15
810.00	261.39
811.00	772.34
812.00	4022.35
813.00	2485.92
814.00	953.93
815.00	481.90
816.00	243.74
817.00	228.28
818.00	218.48
819.00	221.28
820.00	219.13
821.00	218.13
822.00	221.14
823.00	215.67
824.00	213.81
825.00	235.16
826.00	226.28
827.00	405.77
828.00	313.14
829.00	253.08
830.00	229.96
831.00	216.07
832.00	213.09
833.00	213.59
834.00	218.00
835.00	223.54
836.00	214.68
837.00	212.33
838.00	210.92
839.00	212.84
840.00	221.46
841.00	364.54
842.00	413.38
843.00	816.77
844.00	494.73
845.00	366.07
846.00	299.22
847.00	229.20
848.00	213.52
849.00	208.42
850.00	215.01
851.00	205.18
852.00	234.16
853.00	345.08
854.00	244.86
855.00	231.24
856.00	238.67
857.00	212.53
858.00	216.17
859.00	210.20
860.00	209.76
861.00	224.66
862.00	216.59
863.00	217.21
864.00	223.18
865.00	214.13
866.00	216.12
867.00	226.99
868.00	232.99
869.00	226.43
870.00	217.04
871.00	215.38
872.00	214.05
873.00	213.73
874.00	211.57
875.00	207.66
876.00	211.18
877.00	212.55
878.00	211.70
879.00	206.98
880.00	207.19
881.00	203.84
882.00	207.47
883.00	209.50
884.00	206.00
885.00	205.31
886.00	203.21
887.00	209.67
888.00	203.95
889.00	204.40
890.00	206.69
891.00	215.37
892.00	206.41
893.00	204.10
894.00	205.49
895.00	214.33
896.00	197.98
897.00	204.90
898.00	199.90
899.00	196.53
900.00	204.24
901.00	204.68
902.00	202.91
903.00	216.79
904.00	202.47
905.00	198.05
906.00	210.51
907.00	206.99
908.00	207.21
909.00	207.91
910.00	210.35
911.00	214.71
912.00	244.84
913.00	488.81
914.00	357.03
915.00	289.57
916.00	257.30
917.00	227.75
918.00	206.33
919.00	210.50
920.00	208.00
921.00	211.64
922.00	205.76
923.00	243.98
924.00	238.17
925.00	223.29
926.00	211.00
927.00	215.57
928.00	204.26
929.00	201.80
930.00	204.16
931.00	200.35
932.00	198.75
933.00	205.09
934.00	201.27
935.00	198.93
936.00	204.52
937.00	200.78
938.00	208.16
939.00	204.54
940.00	200.54
941.00	204.33
942.00	208.89
943.00	206.65
944.00	202.32
945.00	216.23
946.00	196.91
947.00	202.98
948.00	196.75
949.00	199.07
950.00	202.56
951.00	207.47
952.00	196.07
953.00	199.65
954.00	202.08
955.00	204.50
956.00	203.66
957.00	204.87
958.00	204.38
959.00	201.92
960.00	201.03
961.00	199.85
962.00	203.13
963.00	204.88
964.00	201.94
965.00	202.04
966.00	204.36
967.00	215.63
968.00	211.97
969.00	211.06
970.00	205.01
971.00	210.35
972.00	203.94
973.00	208.88
974.00	206.76
975.00	202.59
976.00	209.93
977.00	201.05
978.00	202.16
979.00	202.47
980.00	203.03
981.00	198.35
982.00	204.82
983.00	210.35
984.00	202.21
985.00	207.66
986.00	199.17
987.00	203.09
988.00	207.31
989.00	202.26
990.00	196.59
991.00	202.26
992.00	200.58
993.00	203.97
994.00	202.44
995.00	200.22
996.00	200.53
997.00	205.34
998.00	199.35
999.00	201.67
1000.00	198.12
>>>>>End Processed Spectral Data<<<<<
