SpectraSuite Data File
++++++++++++++++++++++++++++++++++++
Date: Thu Oct 13 14:58:09 CDT 2011
User: Helimak
Dark Spectrum Present: No
Reference Spectrum Present: No
Number of Sampled Component Spectra: 1
Spectrometers: USB2G37154
Integration Time (usec): 200000 (USB2G37154)
Spectra Averaged: 1 (USB2G37154)
Boxcar Smoothing: 0 (USB2G37154)
Correct for Electrical Dark: No (USB2G37154)
Strobe/Lamp Enabled: No (USB2G37154)
Correct for Detector Non-linearity: No (USB2G37154)
Correct for Stray Light: No (USB2G37154)
Number of Pixels in Processed Spectrum: 651
>>>>>Begin Processed Spectral Data<<<<<
350.00	198.90
351.00	199.49
352.00	199.52
353.00	198.17
354.00	198.97
355.00	203.60
356.00	201.97
357.00	200.67
358.00	206.19
359.00	203.74
360.00	205.02
361.00	202.02
362.00	205.10
363.00	207.73
364.00	202.20
365.00	204.03
366.00	205.52
367.00	201.89
368.00	207.00
369.00	210.90
370.00	215.04
371.00	208.73
372.00	213.90
373.00	210.25
374.00	208.19
375.00	216.56
376.00	212.58
377.00	222.77
378.00	229.06
379.00	231.00
380.00	238.55
381.00	239.26
382.00	230.07
383.00	238.95
384.00	239.57
385.00	246.72
386.00	248.93
387.00	254.85
388.00	243.12
389.00	235.49
390.00	238.69
391.00	241.15
392.00	241.03
393.00	249.94
394.00	245.42
395.00	241.84
396.00	242.03
397.00	239.29
398.00	241.06
399.00	253.96
400.00	277.82
401.00	302.64
402.00	315.54
403.00	321.07
404.00	315.23
405.00	296.43
406.00	295.01
407.00	293.77
408.00	281.14
409.00	293.02
410.00	284.82
411.00	267.99
412.00	261.62
413.00	260.23
414.00	260.36
415.00	314.04
416.00	298.16
417.00	287.19
418.00	308.83
419.00	394.15
420.00	334.28
421.00	290.52
422.00	306.71
423.00	292.69
424.00	300.27
425.00	401.23
426.00	457.71
427.00	461.62
428.00	393.77
429.00	369.72
430.00	347.70
431.00	319.81
432.00	355.57
433.00	449.12
434.00	685.10
435.00	470.57
436.00	364.91
437.00	358.85
438.00	323.29
439.00	357.51
440.00	334.57
441.00	341.88
442.00	459.71
443.00	352.49
444.00	299.80
445.00	278.68
446.00	275.62
447.00	294.58
448.00	291.89
449.00	292.90
450.00	320.30
451.00	319.42
452.00	328.17
453.00	347.10
454.00	408.95
455.00	377.19
456.00	386.59
457.00	417.71
458.00	462.28
459.00	401.08
460.00	509.55
461.00	404.63
462.00	340.31
463.00	313.81
464.00	305.00
465.00	351.18
466.00	328.91
467.00	315.67
468.00	324.91
469.00	328.78
470.00	318.66
471.00	327.30
472.00	378.32
473.00	385.68
474.00	333.94
475.00	321.82
476.00	392.77
477.00	330.38
478.00	302.94
479.00	307.73
480.00	537.00
481.00	383.44
482.00	339.06
483.00	323.94
484.00	371.39
485.00	534.19
486.00	550.78
487.00	738.39
488.00	587.79
489.00	441.71
490.00	380.10
491.00	373.45
492.00	368.63
493.00	375.79
494.00	345.58
495.00	345.04
496.00	389.35
497.00	357.46
498.00	337.49
499.00	338.34
500.00	382.54
501.00	395.65
502.00	351.03
503.00	343.27
504.00	404.95
505.00	435.73
506.00	423.40
507.00	454.17
508.00	438.89
509.00	395.77
510.00	357.90
511.00	345.00
512.00	336.09
513.00	358.19
514.00	397.07
515.00	351.06
516.00	346.12
517.00	336.10
518.00	360.12
519.00	352.62
520.00	318.53
521.00	328.24
522.00	328.70
523.00	326.49
524.00	328.44
525.00	344.43
526.00	340.73
527.00	319.00
528.00	318.42
529.00	310.01
530.00	310.40
531.00	329.78
532.00	347.73
533.00	358.55
534.00	362.62
535.00	378.93
536.00	371.32
537.00	363.87
538.00	351.74
539.00	348.71
540.00	345.26
541.00	340.36
542.00	348.78
543.00	353.63
544.00	342.39
545.00	347.88
546.00	372.17
547.00	391.72
548.00	362.42
549.00	396.73
550.00	400.63
551.00	387.96
552.00	362.15
553.00	357.36
554.00	345.37
555.00	363.42
556.00	363.39
557.00	336.79
558.00	318.98
559.00	317.06
560.00	328.85
561.00	311.68
562.00	310.65
563.00	303.20
564.00	313.86
565.00	331.68
566.00	335.07
567.00	352.72
568.00	346.03
569.00	346.31
570.00	335.64
571.00	329.48
572.00	304.58
573.00	311.08
574.00	315.40
575.00	302.73
576.00	302.74
577.00	309.56
578.00	307.42
579.00	305.24
580.00	304.70
581.00	289.99
582.00	291.06
583.00	293.41
584.00	298.11
585.00	293.47
586.00	302.93
587.00	313.07
588.00	322.90
589.00	332.21
590.00	311.96
591.00	316.72
592.00	300.83
593.00	299.35
594.00	290.02
595.00	281.31
596.00	272.13
597.00	284.76
598.00	294.15
599.00	300.23
600.00	306.96
601.00	326.35
602.00	328.44
603.00	430.85
604.00	391.84
605.00	340.92
606.00	318.25
607.00	282.59
608.00	272.88
609.00	264.79
610.00	276.08
611.00	301.89
612.00	297.62
613.00	277.03
614.00	270.69
615.00	285.15
616.00	290.41
617.00	317.99
618.00	281.57
619.00	285.17
620.00	289.90
621.00	308.55
622.00	285.12
623.00	264.85
624.00	294.23
625.00	319.81
626.00	306.06
627.00	298.85
628.00	294.34
629.00	296.10
630.00	300.37
631.00	288.82
632.00	273.86
633.00	259.25
634.00	257.59
635.00	261.03
636.00	257.75
637.00	262.14
638.00	257.55
639.00	266.73
640.00	278.89
641.00	286.04
642.00	301.57
643.00	278.67
644.00	271.58
645.00	270.20
646.00	282.15
647.00	273.15
648.00	269.42
649.00	267.88
650.00	253.73
651.00	243.61
652.00	255.49
653.00	252.74
654.00	263.15
655.00	258.45
656.00	670.16
657.00	545.57
658.00	341.95
659.00	260.90
660.00	257.60
661.00	240.94
662.00	238.46
663.00	236.22
664.00	264.41
665.00	251.02
666.00	233.87
667.00	240.86
668.00	249.87
669.00	245.00
670.00	238.03
671.00	234.98
672.00	240.81
673.00	245.97
674.00	243.30
675.00	275.35
676.00	281.08
677.00	238.97
678.00	237.96
679.00	230.61
680.00	226.74
681.00	227.49
682.00	232.76
683.00	226.50
684.00	231.08
685.00	231.37
686.00	224.68
687.00	249.45
688.00	238.00
689.00	240.78
690.00	223.14
691.00	230.26
692.00	233.71
693.00	241.91
694.00	261.11
695.00	251.96
696.00	288.01
697.00	402.84
698.00	290.37
699.00	255.38
700.00	240.44
701.00	240.36
702.00	238.17
703.00	279.06
704.00	258.24
705.00	242.22
706.00	237.68
707.00	339.22
708.00	269.46
709.00	243.15
710.00	224.78
711.00	226.33
712.00	230.62
713.00	226.98
714.00	225.94
715.00	240.24
716.00	231.04
717.00	223.87
718.00	220.52
719.00	219.73
720.00	223.03
721.00	228.03
722.00	221.66
723.00	230.95
724.00	224.02
725.00	250.21
726.00	227.68
727.00	242.19
728.00	255.51
729.00	235.38
730.00	223.94
731.00	226.00
732.00	225.24
733.00	219.81
734.00	217.80
735.00	223.52
736.00	232.06
737.00	250.65
738.00	293.35
739.00	367.01
740.00	258.13
741.00	229.68
742.00	219.91
743.00	216.08
744.00	220.00
745.00	227.55
746.00	211.07
747.00	225.47
748.00	218.43
749.00	221.69
750.00	279.27
751.00	625.44
752.00	492.79
753.00	313.91
754.00	233.07
755.00	211.85
756.00	214.34
757.00	213.14
758.00	216.73
759.00	221.95
760.00	215.36
761.00	216.14
762.00	223.89
763.00	261.80
764.00	1003.55
765.00	525.37
766.00	317.23
767.00	226.36
768.00	210.47
769.00	207.74
770.00	208.94
771.00	211.41
772.00	225.07
773.00	371.57
774.00	266.99
775.00	235.33
776.00	209.76
777.00	254.14
778.00	466.07
779.00	300.51
780.00	237.69
781.00	210.09
782.00	204.26
783.00	210.83
784.00	210.05
785.00	208.16
786.00	215.20
787.00	217.59
788.00	213.26
789.00	220.97
790.00	225.79
791.00	226.38
792.00	215.24
793.00	216.35
794.00	211.60
795.00	337.89
796.00	326.37
797.00	249.21
798.00	225.39
799.00	213.94
800.00	210.86
801.00	315.86
802.00	454.34
803.00	315.84
804.00	250.49
805.00	215.64
806.00	213.82
807.00	212.88
808.00	210.65
809.00	210.92
810.00	218.06
811.00	435.01
812.00	1898.32
813.00	1094.49
814.00	493.63
815.00	317.07
816.00	212.95
817.00	209.56
818.00	206.41
819.00	210.50
820.00	206.58
821.00	201.98
822.00	205.46
823.00	203.80
824.00	206.61
825.00	214.41
826.00	203.02
827.00	283.14
828.00	240.68
829.00	214.72
830.00	213.00
831.00	206.56
832.00	202.61
833.00	204.11
834.00	204.20
835.00	209.04
836.00	200.52
837.00	205.42
838.00	203.51
839.00	203.10
840.00	208.50
841.00	264.37
842.00	289.10
843.00	442.84
844.00	314.13
845.00	265.88
846.00	230.30
847.00	203.60
848.00	202.30
849.00	202.60
850.00	201.75
851.00	198.98
852.00	216.31
853.00	258.45
854.00	221.85
855.00	208.22
856.00	215.12
857.00	202.34
858.00	201.79
859.00	196.99
860.00	199.15
861.00	207.64
862.00	207.85
863.00	206.76
864.00	208.89
865.00	208.86
866.00	209.26
867.00	208.87
868.00	208.99
869.00	210.33
870.00	201.33
871.00	207.68
872.00	204.78
873.00	205.37
874.00	203.22
875.00	198.67
876.00	204.34
877.00	204.62
878.00	201.99
879.00	200.13
880.00	204.06
881.00	203.67
882.00	202.69
883.00	200.46
884.00	201.99
885.00	200.73
886.00	200.55
887.00	199.52
888.00	199.02
889.00	200.39
890.00	203.86
891.00	199.90
892.00	204.06
893.00	200.18
894.00	200.82
895.00	207.91
896.00	194.18
897.00	198.28
898.00	203.79
899.00	200.96
900.00	203.32
901.00	200.48
902.00	197.36
903.00	204.86
904.00	196.41
905.00	202.01
906.00	202.86
907.00	201.42
908.00	201.42
909.00	202.37
910.00	204.71
911.00	203.26
912.00	217.77
913.00	318.09
914.00	260.28
915.00	233.25
916.00	217.07
917.00	210.70
918.00	196.16
919.00	205.18
920.00	202.07
921.00	202.77
922.00	199.39
923.00	213.94
924.00	211.50
925.00	209.82
926.00	203.00
927.00	202.19
928.00	201.51
929.00	203.20
930.00	203.36
931.00	199.48
932.00	198.81
933.00	205.55
934.00	202.11
935.00	196.18
936.00	198.70
937.00	197.92
938.00	199.86
939.00	198.80
940.00	200.90
941.00	196.65
942.00	203.00
943.00	199.06
944.00	193.95
945.00	204.31
946.00	193.77
947.00	198.96
948.00	198.37
949.00	200.88
950.00	198.18
951.00	203.56
952.00	204.11
953.00	198.33
954.00	195.54
955.00	199.31
956.00	199.22
957.00	194.30
958.00	198.76
959.00	203.04
960.00	199.74
961.00	202.77
962.00	197.50
963.00	199.16
964.00	201.98
965.00	198.29
966.00	201.10
967.00	202.88
968.00	204.98
969.00	198.42
970.00	204.15
971.00	196.93
972.00	197.21
973.00	202.10
974.00	202.49
975.00	200.17
976.00	200.07
977.00	196.45
978.00	198.52
979.00	196.39
980.00	193.27
981.00	199.75
982.00	201.05
983.00	205.19
984.00	199.02
985.00	201.20
986.00	196.71
987.00	196.98
988.00	199.69
989.00	198.80
990.00	198.01
991.00	200.75
992.00	196.81
993.00	199.35
994.00	199.30
995.00	200.00
996.00	197.98
997.00	198.51
998.00	198.16
999.00	201.21
1000.00	199.93
>>>>>End Processed Spectral Data<<<<<
