SpectraSuite Data File
++++++++++++++++++++++++++++++++++++
Date: Wed Jan 25 13:15:35 CST 2012
User: Helimak
Dark Spectrum Present: No
Reference Spectrum Present: No
Number of Sampled Component Spectra: 1
Spectrometers: USB2G37154
Integration Time (usec): 200000 (USB2G37154)
Spectra Averaged: 50 (USB2G37154)
Boxcar Smoothing: 0 (USB2G37154)
Correct for Electrical Dark: No (USB2G37154)
Strobe/Lamp Enabled: No (USB2G37154)
Correct for Detector Non-linearity: No (USB2G37154)
Correct for Stray Light: No (USB2G37154)
Number of Pixels in Processed Spectrum: 651
>>>>>Begin Processed Spectral Data<<<<<
350.00	212.29
351.00	213.48
352.00	212.03
353.00	212.96
354.00	213.40
355.00	214.57
356.00	213.80
357.00	212.80
358.00	215.21
359.00	213.06
360.00	213.78
361.00	213.68
362.00	216.52
363.00	213.95
364.00	215.69
365.00	213.91
366.00	213.99
367.00	214.08
368.00	214.23
369.00	214.48
370.00	214.62
371.00	214.37
372.00	215.07
373.00	215.36
374.00	215.50
375.00	217.35
376.00	214.24
377.00	214.68
378.00	217.70
379.00	214.69
380.00	215.09
381.00	215.02
382.00	216.05
383.00	216.57
384.00	215.77
385.00	215.95
386.00	215.15
387.00	215.80
388.00	214.86
389.00	215.02
390.00	215.67
391.00	216.00
392.00	215.82
393.00	215.64
394.00	217.36
395.00	215.74
396.00	215.41
397.00	215.69
398.00	215.62
399.00	216.08
400.00	215.81
401.00	214.73
402.00	215.98
403.00	216.01
404.00	216.33
405.00	216.65
406.00	216.32
407.00	216.34
408.00	216.15
409.00	216.51
410.00	215.22
411.00	215.61
412.00	215.93
413.00	216.32
414.00	215.91
415.00	216.73
416.00	216.81
417.00	217.45
418.00	217.07
419.00	216.95
420.00	217.33
421.00	216.38
422.00	216.98
423.00	216.08
424.00	215.60
425.00	216.41
426.00	216.55
427.00	220.05
428.00	215.67
429.00	216.41
430.00	215.66
431.00	215.64
432.00	220.24
433.00	217.98
434.00	216.46
435.00	217.41
436.00	218.50
437.00	222.36
438.00	217.15
439.00	216.35
440.00	216.43
441.00	217.50
442.00	215.83
443.00	216.30
444.00	215.59
445.00	216.58
446.00	217.06
447.00	216.56
448.00	216.19
449.00	216.49
450.00	216.18
451.00	216.91
452.00	215.22
453.00	216.41
454.00	216.70
455.00	216.86
456.00	216.99
457.00	217.34
458.00	216.66
459.00	216.12
460.00	216.75
461.00	216.25
462.00	216.68
463.00	216.89
464.00	216.73
465.00	221.37
466.00	220.13
467.00	215.52
468.00	216.68
469.00	217.31
470.00	215.99
471.00	215.73
472.00	216.62
473.00	216.70
474.00	216.99
475.00	216.21
476.00	215.31
477.00	215.54
478.00	215.60
479.00	215.27
480.00	216.37
481.00	216.57
482.00	216.37
483.00	216.43
484.00	215.62
485.00	215.52
486.00	217.54
487.00	216.16
488.00	216.36
489.00	217.19
490.00	216.83
491.00	216.14
492.00	217.44
493.00	217.03
494.00	216.42
495.00	215.26
496.00	217.12
497.00	215.52
498.00	215.66
499.00	215.83
500.00	215.46
501.00	215.64
502.00	215.74
503.00	215.91
504.00	217.13
505.00	215.79
506.00	216.45
507.00	216.65
508.00	216.05
509.00	215.78
510.00	215.49
511.00	216.53
512.00	215.82
513.00	215.41
514.00	215.44
515.00	215.96
516.00	214.50
517.00	215.88
518.00	215.58
519.00	216.06
520.00	216.75
521.00	215.85
522.00	216.16
523.00	214.18
524.00	214.76
525.00	216.70
526.00	217.79
527.00	215.58
528.00	215.91
529.00	216.93
530.00	214.87
531.00	215.02
532.00	215.02
533.00	214.92
534.00	215.60
535.00	215.23
536.00	214.90
537.00	215.40
538.00	215.84
539.00	215.25
540.00	216.33
541.00	216.18
542.00	218.19
543.00	218.84
544.00	218.81
545.00	217.83
546.00	218.72
547.00	218.73
548.00	215.58
549.00	215.73
550.00	215.27
551.00	216.40
552.00	214.84
553.00	215.51
554.00	216.20
555.00	214.46
556.00	215.92
557.00	215.09
558.00	215.08
559.00	214.64
560.00	216.85
561.00	215.60
562.00	214.64
563.00	215.24
564.00	215.01
565.00	215.12
566.00	215.74
567.00	216.31
568.00	215.16
569.00	214.93
570.00	219.57
571.00	225.43
572.00	215.97
573.00	217.47
574.00	217.54
575.00	214.21
576.00	215.26
577.00	215.26
578.00	215.23
579.00	215.64
580.00	215.28
581.00	215.31
582.00	215.61
583.00	216.25
584.00	215.56
585.00	215.60
586.00	216.45
587.00	216.27
588.00	215.70
589.00	215.91
590.00	215.27
591.00	215.15
592.00	214.82
593.00	215.44
594.00	215.52
595.00	214.62
596.00	215.07
597.00	215.53
598.00	215.95
599.00	216.10
600.00	215.00
601.00	214.94
602.00	214.66
603.00	215.84
604.00	214.50
605.00	215.52
606.00	214.53
607.00	214.51
608.00	214.74
609.00	214.49
610.00	215.25
611.00	219.20
612.00	219.75
613.00	217.91
614.00	215.93
615.00	215.47
616.00	215.47
617.00	214.45
618.00	218.03
619.00	228.39
620.00	215.08
621.00	217.23
622.00	214.90
623.00	214.65
624.00	214.81
625.00	214.54
626.00	214.34
627.00	213.86
628.00	215.30
629.00	216.98
630.00	214.09
631.00	215.60
632.00	215.42
633.00	215.65
634.00	214.87
635.00	216.25
636.00	216.54
637.00	214.80
638.00	215.02
639.00	214.21
640.00	217.39
641.00	214.50
642.00	214.07
643.00	215.10
644.00	214.68
645.00	214.90
646.00	217.19
647.00	214.12
648.00	214.52
649.00	215.25
650.00	214.05
651.00	213.93
652.00	214.27
653.00	213.80
654.00	216.31
655.00	214.78
656.00	215.04
657.00	216.04
658.00	215.92
659.00	215.00
660.00	214.94
661.00	214.39
662.00	214.42
663.00	213.46
664.00	219.87
665.00	215.62
666.00	214.66
667.00	216.77
668.00	218.04
669.00	213.70
670.00	213.78
671.00	214.40
672.00	214.33
673.00	215.62
674.00	214.17
675.00	214.96
676.00	214.87
677.00	214.60
678.00	214.49
679.00	214.47
680.00	214.97
681.00	217.38
682.00	218.81
683.00	214.48
684.00	220.73
685.00	219.16
686.00	213.98
687.00	213.67
688.00	214.30
689.00	214.95
690.00	213.82
691.00	215.26
692.00	214.19
693.00	213.98
694.00	213.71
695.00	214.16
696.00	215.46
697.00	217.67
698.00	214.55
699.00	215.54
700.00	213.98
701.00	214.25
702.00	214.14
703.00	213.73
704.00	214.54
705.00	213.96
706.00	214.77
707.00	214.39
708.00	214.62
709.00	216.00
710.00	213.94
711.00	213.34
712.00	214.60
713.00	213.89
714.00	214.25
715.00	214.91
716.00	214.36
717.00	214.08
718.00	213.82
719.00	213.61
720.00	214.55
721.00	214.28
722.00	214.44
723.00	215.11
724.00	215.50
725.00	229.14
726.00	214.36
727.00	213.41
728.00	215.64
729.00	214.14
730.00	214.82
731.00	215.75
732.00	214.03
733.00	214.76
734.00	214.90
735.00	214.41
736.00	214.03
737.00	214.59
738.00	214.04
739.00	215.34
740.00	213.87
741.00	214.55
742.00	214.48
743.00	213.69
744.00	213.67
745.00	221.64
746.00	213.33
747.00	213.64
748.00	214.24
749.00	214.43
750.00	214.25
751.00	213.90
752.00	213.07
753.00	213.67
754.00	213.97
755.00	213.85
756.00	214.26
757.00	215.80
758.00	216.43
759.00	217.03
760.00	215.62
761.00	213.22
762.00	215.43
763.00	219.08
764.00	213.53
765.00	214.61
766.00	213.83
767.00	214.07
768.00	214.83
769.00	214.14
770.00	214.03
771.00	214.95
772.00	214.40
773.00	214.22
774.00	213.46
775.00	218.06
776.00	214.95
777.00	214.16
778.00	214.71
779.00	218.29
780.00	214.23
781.00	214.03
782.00	214.40
783.00	213.44
784.00	214.68
785.00	214.49
786.00	214.08
787.00	214.23
788.00	214.42
789.00	216.89
790.00	214.46
791.00	213.81
792.00	213.88
793.00	213.94
794.00	214.06
795.00	213.74
796.00	213.56
797.00	213.68
798.00	215.96
799.00	214.79
800.00	214.69
801.00	214.13
802.00	214.88
803.00	217.30
804.00	212.94
805.00	213.26
806.00	215.31
807.00	213.94
808.00	215.53
809.00	215.50
810.00	215.72
811.00	214.72
812.00	214.20
813.00	214.95
814.00	214.90
815.00	214.39
816.00	213.47
817.00	217.25
818.00	214.14
819.00	215.27
820.00	214.67
821.00	214.16
822.00	215.62
823.00	214.86
824.00	213.83
825.00	220.72
826.00	215.72
827.00	214.06
828.00	213.97
829.00	214.66
830.00	214.40
831.00	215.11
832.00	213.95
833.00	215.14
834.00	213.98
835.00	215.79
836.00	214.69
837.00	215.05
838.00	214.34
839.00	214.02
840.00	214.78
841.00	214.30
842.00	215.54
843.00	217.06
844.00	213.21
845.00	214.40
846.00	214.26
847.00	215.39
848.00	213.89
849.00	213.77
850.00	214.52
851.00	213.38
852.00	214.96
853.00	215.27
854.00	214.92
855.00	214.58
856.00	221.44
857.00	215.02
858.00	216.53
859.00	214.07
860.00	214.39
861.00	216.74
862.00	214.46
863.00	213.62
864.00	217.23
865.00	214.86
866.00	214.94
867.00	214.30
868.00	214.73
869.00	214.51
870.00	214.41
871.00	214.38
872.00	214.60
873.00	214.58
874.00	213.92
875.00	213.68
876.00	214.99
877.00	214.46
878.00	214.61
879.00	214.35
880.00	214.25
881.00	214.74
882.00	214.34
883.00	214.37
884.00	214.34
885.00	214.01
886.00	213.73
887.00	214.99
888.00	214.15
889.00	214.59
890.00	215.45
891.00	216.25
892.00	215.78
893.00	213.89
894.00	214.12
895.00	216.54
896.00	213.78
897.00	213.35
898.00	213.28
899.00	213.66
900.00	215.26
901.00	213.96
902.00	213.95
903.00	218.38
904.00	213.47
905.00	214.66
906.00	217.39
907.00	214.56
908.00	214.18
909.00	213.55
910.00	214.15
911.00	214.75
912.00	215.07
913.00	214.73
914.00	214.87
915.00	213.81
916.00	214.92
917.00	214.87
918.00	214.27
919.00	216.24
920.00	214.72
921.00	216.43
922.00	213.99
923.00	215.27
924.00	213.75
925.00	215.73
926.00	214.24
927.00	214.95
928.00	213.21
929.00	213.99
930.00	214.31
931.00	214.12
932.00	213.77
933.00	214.83
934.00	213.97
935.00	214.03
936.00	213.37
937.00	214.23
938.00	215.88
939.00	215.10
940.00	214.17
941.00	215.50
942.00	216.49
943.00	215.16
944.00	214.34
945.00	218.55
946.00	213.78
947.00	214.53
948.00	214.15
949.00	213.68
950.00	214.94
951.00	214.93
952.00	214.16
953.00	214.66
954.00	213.58
955.00	215.90
956.00	214.16
957.00	214.58
958.00	214.92
959.00	214.44
960.00	214.28
961.00	214.08
962.00	215.04
963.00	214.28
964.00	214.53
965.00	214.27
966.00	213.76
967.00	215.33
968.00	214.91
969.00	214.53
970.00	213.94
971.00	215.61
972.00	214.31
973.00	217.12
974.00	215.68
975.00	214.24
976.00	215.83
977.00	213.86
978.00	214.68
979.00	214.85
980.00	213.98
981.00	213.86
982.00	215.16
983.00	216.50
984.00	213.99
985.00	215.82
986.00	213.78
987.00	214.63
988.00	215.62
989.00	214.49
990.00	213.97
991.00	215.55
992.00	214.17
993.00	215.76
994.00	215.16
995.00	214.18
996.00	214.71
997.00	215.04
998.00	215.26
999.00	215.69
1000.00	214.18
>>>>>End Processed Spectral Data<<<<<
