SpectraSuite Data File
++++++++++++++++++++++++++++++++++++
Date: Wed Jan 25 13:21:03 CST 2012
User: Helimak
Dark Spectrum Present: No
Reference Spectrum Present: No
Number of Sampled Component Spectra: 1
Spectrometers: USB2G37154
Integration Time (usec): 200000 (USB2G37154)
Spectra Averaged: 50 (USB2G37154)
Boxcar Smoothing: 0 (USB2G37154)
Correct for Electrical Dark: No (USB2G37154)
Strobe/Lamp Enabled: No (USB2G37154)
Correct for Detector Non-linearity: No (USB2G37154)
Correct for Stray Light: No (USB2G37154)
Number of Pixels in Processed Spectrum: 651
>>>>>Begin Processed Spectral Data<<<<<
350.00	213.39
351.00	214.69
352.00	213.26
353.00	213.78
354.00	214.43
355.00	215.75
356.00	215.37
357.00	214.25
358.00	216.34
359.00	214.72
360.00	215.62
361.00	214.32
362.00	217.50
363.00	214.86
364.00	217.09
365.00	214.94
366.00	214.72
367.00	215.90
368.00	215.20
369.00	216.42
370.00	216.00
371.00	215.24
372.00	216.29
373.00	216.65
374.00	216.99
375.00	219.20
376.00	215.93
377.00	216.39
378.00	218.98
379.00	216.53
380.00	216.80
381.00	216.58
382.00	216.96
383.00	218.22
384.00	217.01
385.00	216.99
386.00	217.21
387.00	218.08
388.00	216.89
389.00	217.27
390.00	217.24
391.00	218.68
392.00	218.27
393.00	217.08
394.00	218.36
395.00	218.13
396.00	218.14
397.00	217.97
398.00	218.50
399.00	219.58
400.00	219.48
401.00	218.79
402.00	220.03
403.00	221.37
404.00	221.61
405.00	222.62
406.00	222.58
407.00	224.36
408.00	224.90
409.00	226.80
410.00	227.83
411.00	229.32
412.00	231.22
413.00	234.01
414.00	235.33
415.00	238.94
416.00	240.02
417.00	243.61
418.00	245.15
419.00	247.49
420.00	250.70
421.00	252.04
422.00	256.09
423.00	258.34
424.00	261.65
425.00	264.88
426.00	267.82
427.00	273.73
428.00	273.73
429.00	276.03
430.00	277.65
431.00	278.47
432.00	284.50
433.00	282.14
434.00	281.03
435.00	282.67
436.00	283.61
437.00	289.11
438.00	283.74
439.00	284.82
440.00	285.93
441.00	286.75
442.00	286.87
443.00	287.85
444.00	289.84
445.00	292.35
446.00	295.47
447.00	296.39
448.00	299.70
449.00	303.31
450.00	305.23
451.00	310.80
452.00	314.41
453.00	320.48
454.00	321.93
455.00	325.84
456.00	331.26
457.00	332.04
458.00	335.19
459.00	335.19
460.00	337.99
461.00	337.71
462.00	340.97
463.00	338.55
464.00	338.93
465.00	342.75
466.00	344.53
467.00	338.61
468.00	339.95
469.00	340.92
470.00	342.45
471.00	343.27
472.00	347.62
473.00	348.45
474.00	353.11
475.00	355.60
476.00	360.49
477.00	365.25
478.00	370.43
479.00	376.00
480.00	382.08
481.00	388.10
482.00	396.69
483.00	401.10
484.00	412.18
485.00	421.89
486.00	431.08
487.00	437.42
488.00	447.80
489.00	456.50
490.00	464.23
491.00	471.79
492.00	480.37
493.00	487.76
494.00	491.65
495.00	494.93
496.00	497.70
497.00	500.73
498.00	501.69
499.00	502.46
500.00	503.97
501.00	504.28
502.00	502.66
503.00	502.92
504.00	506.06
505.00	503.15
506.00	506.17
507.00	508.00
508.00	506.50
509.00	505.11
510.00	506.32
511.00	509.74
512.00	511.08
513.00	512.57
514.00	514.67
515.00	517.87
516.00	519.33
517.00	521.90
518.00	529.58
519.00	534.97
520.00	538.85
521.00	543.21
522.00	550.94
523.00	555.57
524.00	562.42
525.00	570.62
526.00	578.44
527.00	584.69
528.00	592.34
529.00	605.20
530.00	606.64
531.00	616.14
532.00	624.67
533.00	630.55
534.00	637.90
535.00	647.09
536.00	648.48
537.00	656.76
538.00	660.94
539.00	660.09
540.00	662.47
541.00	664.76
542.00	666.75
543.00	665.52
544.00	666.80
545.00	661.51
546.00	662.29
547.00	659.39
548.00	655.55
549.00	655.89
550.00	652.52
551.00	651.05
552.00	649.35
553.00	648.68
554.00	650.91
555.00	651.61
556.00	652.05
557.00	652.87
558.00	651.09
559.00	653.09
560.00	658.06
561.00	660.52
562.00	665.35
563.00	666.50
564.00	670.17
565.00	673.79
566.00	679.61
567.00	682.65
568.00	685.14
569.00	688.61
570.00	698.23
571.00	713.82
572.00	707.57
573.00	716.24
574.00	722.42
575.00	724.12
576.00	730.54
577.00	733.84
578.00	740.44
579.00	746.54
580.00	751.17
581.00	754.27
582.00	760.16
583.00	762.57
584.00	767.74
585.00	762.96
586.00	767.47
587.00	767.76
588.00	766.21
589.00	767.37
590.00	766.47
591.00	766.41
592.00	764.63
593.00	765.22
594.00	767.43
595.00	763.50
596.00	762.25
597.00	759.32
598.00	759.86
599.00	762.51
600.00	759.48
601.00	756.92
602.00	752.63
603.00	755.93
604.00	756.29
605.00	753.45
606.00	755.44
607.00	759.02
608.00	756.59
609.00	756.59
610.00	756.06
611.00	761.49
612.00	765.29
613.00	765.85
614.00	766.78
615.00	770.11
616.00	771.01
617.00	773.13
618.00	776.31
619.00	780.71
620.00	778.99
621.00	785.67
622.00	787.14
623.00	790.43
624.00	795.78
625.00	797.17
626.00	800.56
627.00	803.00
628.00	808.29
629.00	815.96
630.00	813.43
631.00	821.86
632.00	820.87
633.00	818.98
634.00	824.63
635.00	826.38
636.00	828.32
637.00	823.04
638.00	828.96
639.00	825.10
640.00	831.44
641.00	824.89
642.00	818.98
643.00	821.57
644.00	816.36
645.00	812.83
646.00	810.91
647.00	806.99
648.00	802.61
649.00	797.84
650.00	793.32
651.00	790.93
652.00	786.44
653.00	783.09
654.00	778.46
655.00	772.11
656.00	769.36
657.00	762.81
658.00	763.54
659.00	756.90
660.00	753.93
661.00	749.37
662.00	746.69
663.00	749.83
664.00	747.33
665.00	736.10
666.00	734.75
667.00	734.12
668.00	732.17
669.00	725.03
670.00	727.28
671.00	723.69
672.00	719.37
673.00	720.31
674.00	718.89
675.00	714.00
676.00	719.83
677.00	715.24
678.00	715.64
679.00	714.27
680.00	712.38
681.00	714.65
682.00	716.86
683.00	710.90
684.00	718.54
685.00	716.63
686.00	709.27
687.00	710.45
688.00	711.37
689.00	714.95
690.00	715.58
691.00	715.19
692.00	713.54
693.00	713.68
694.00	715.77
695.00	719.73
696.00	719.48
697.00	722.91
698.00	721.86
699.00	722.81
700.00	718.79
701.00	720.26
702.00	719.67
703.00	719.44
704.00	716.24
705.00	720.54
706.00	712.11
707.00	711.15
708.00	713.08
709.00	711.64
710.00	709.21
711.00	705.60
712.00	704.94
713.00	695.64
714.00	693.53
715.00	692.16
716.00	684.04
717.00	680.65
718.00	673.24
719.00	665.48
720.00	659.97
721.00	654.28
722.00	644.93
723.00	641.98
724.00	636.99
725.00	645.08
726.00	624.85
727.00	616.39
728.00	616.07
729.00	614.67
730.00	609.59
731.00	606.79
732.00	601.64
733.00	599.76
734.00	594.52
735.00	594.74
736.00	587.56
737.00	583.18
738.00	585.48
739.00	578.13
740.00	578.80
741.00	575.04
742.00	567.09
743.00	565.14
744.00	560.56
745.00	565.46
746.00	551.85
747.00	553.12
748.00	547.65
749.00	544.34
750.00	540.88
751.00	541.11
752.00	535.27
753.00	536.83
754.00	533.51
755.00	531.25
756.00	525.95
757.00	527.16
758.00	526.88
759.00	528.59
760.00	521.47
761.00	518.85
762.00	519.30
763.00	517.09
764.00	508.85
765.00	507.61
766.00	508.20
767.00	507.88
768.00	504.35
769.00	502.48
770.00	499.04
771.00	498.65
772.00	498.43
773.00	497.19
774.00	493.26
775.00	494.40
776.00	487.85
777.00	486.51
778.00	482.31
779.00	486.97
780.00	480.52
781.00	480.88
782.00	479.95
783.00	480.29
784.00	480.10
785.00	481.97
786.00	484.66
787.00	484.67
788.00	486.75
789.00	491.99
790.00	488.12
791.00	489.05
792.00	489.71
793.00	493.05
794.00	494.42
795.00	494.16
796.00	494.28
797.00	493.31
798.00	498.56
799.00	495.78
800.00	494.45
801.00	493.19
802.00	492.93
803.00	493.65
804.00	486.70
805.00	485.92
806.00	487.23
807.00	484.00
808.00	483.80
809.00	480.00
810.00	478.19
811.00	474.87
812.00	472.52
813.00	471.32
814.00	466.07
815.00	462.18
816.00	459.17
817.00	457.38
818.00	452.61
819.00	449.51
820.00	446.75
821.00	441.88
822.00	442.63
823.00	437.48
824.00	431.92
825.00	436.09
826.00	426.98
827.00	423.20
828.00	419.28
829.00	418.33
830.00	412.38
831.00	410.02
832.00	407.72
833.00	404.84
834.00	401.40
835.00	400.91
836.00	396.48
837.00	391.83
838.00	389.37
839.00	387.55
840.00	385.17
841.00	381.57
842.00	381.19
843.00	378.73
844.00	375.54
845.00	373.12
846.00	369.08
847.00	366.90
848.00	364.69
849.00	362.37
850.00	360.43
851.00	358.35
852.00	358.10
853.00	357.20
854.00	353.03
855.00	350.43
856.00	354.85
857.00	346.62
858.00	347.53
859.00	342.93
860.00	341.50
861.00	344.23
862.00	338.04
863.00	336.19
864.00	336.79
865.00	333.62
866.00	330.73
867.00	330.90
868.00	329.62
869.00	326.29
870.00	322.91
871.00	322.52
872.00	323.18
873.00	320.24
874.00	316.32
875.00	315.47
876.00	314.01
877.00	312.61
878.00	309.78
879.00	308.52
880.00	307.08
881.00	307.20
882.00	305.77
883.00	303.34
884.00	302.94
885.00	302.41
886.00	300.51
887.00	299.94
888.00	298.20
889.00	297.57
890.00	298.05
891.00	298.59
892.00	296.61
893.00	295.08
894.00	294.29
895.00	298.58
896.00	294.00
897.00	292.92
898.00	293.90
899.00	292.94
900.00	294.58
901.00	293.95
902.00	292.77
903.00	297.83
904.00	293.03
905.00	294.01
906.00	297.20
907.00	294.56
908.00	293.70
909.00	292.54
910.00	292.61
911.00	293.03
912.00	292.49
913.00	291.30
914.00	292.26
915.00	290.78
916.00	290.79
917.00	290.54
918.00	288.27
919.00	289.29
920.00	285.67
921.00	286.33
922.00	282.71
923.00	282.64
924.00	281.68
925.00	280.67
926.00	278.72
927.00	276.29
928.00	273.46
929.00	272.58
930.00	271.87
931.00	269.10
932.00	267.00
933.00	266.37
934.00	262.80
935.00	259.82
936.00	257.33
937.00	254.76
938.00	252.43
939.00	248.49
940.00	243.18
941.00	242.31
942.00	240.26
943.00	236.29
944.00	234.46
945.00	238.06
946.00	233.74
947.00	233.72
948.00	232.69
949.00	232.47
950.00	234.06
951.00	233.88
952.00	233.93
953.00	234.57
954.00	233.32
955.00	236.27
956.00	234.46
957.00	235.07
958.00	234.96
959.00	235.02
960.00	234.11
961.00	233.77
962.00	234.40
963.00	233.75
964.00	232.94
965.00	232.68
966.00	232.79
967.00	233.87
968.00	232.60
969.00	231.51
970.00	230.93
971.00	231.46
972.00	230.99
973.00	233.24
974.00	230.97
975.00	228.83
976.00	230.82
977.00	227.85
978.00	227.80
979.00	228.22
980.00	226.86
981.00	225.76
982.00	227.32
983.00	229.20
984.00	225.27
985.00	227.02
986.00	224.48
987.00	225.17
988.00	225.95
989.00	224.21
990.00	222.69
991.00	223.64
992.00	222.71
993.00	223.57
994.00	223.38
995.00	221.30
996.00	222.30
997.00	222.21
998.00	221.49
999.00	221.63
1000.00	220.10
>>>>>End Processed Spectral Data<<<<<
