SpectraSuite Data File
++++++++++++++++++++++++++++++++++++
Date: Fri Jan 27 16:36:32 CST 2012
User: Helimak
Dark Spectrum Present: No
Reference Spectrum Present: No
Number of Sampled Component Spectra: 1
Spectrometers: USB2G37154
Integration Time (usec): 150000 (USB2G37154)
Spectra Averaged: 200 (USB2G37154)
Boxcar Smoothing: 0 (USB2G37154)
Correct for Electrical Dark: No (USB2G37154)
Strobe/Lamp Enabled: No (USB2G37154)
Correct for Detector Non-linearity: No (USB2G37154)
Correct for Stray Light: No (USB2G37154)
Number of Pixels in Processed Spectrum: 651
>>>>>Begin Processed Spectral Data<<<<<
350.00	212.46
351.00	213.28
352.00	212.50
353.00	212.67
354.00	213.20
355.00	213.96
356.00	214.00
357.00	212.78
358.00	214.50
359.00	213.59
360.00	213.78
361.00	213.40
362.00	215.50
363.00	213.44
364.00	215.39
365.00	214.14
366.00	214.30
367.00	214.20
368.00	213.95
369.00	214.40
370.00	214.83
371.00	214.17
372.00	215.24
373.00	214.80
374.00	215.38
375.00	217.22
376.00	214.91
377.00	214.80
378.00	216.83
379.00	215.06
380.00	215.35
381.00	215.13
382.00	215.72
383.00	216.55
384.00	215.26
385.00	215.83
386.00	215.44
387.00	215.88
388.00	214.83
389.00	215.65
390.00	215.66
391.00	215.84
392.00	215.62
393.00	215.96
394.00	216.44
395.00	215.71
396.00	215.80
397.00	216.12
398.00	215.81
399.00	216.21
400.00	216.00
401.00	215.32
402.00	216.16
403.00	216.43
404.00	216.16
405.00	216.46
406.00	216.21
407.00	216.28
408.00	216.36
409.00	216.44
410.00	215.74
411.00	215.55
412.00	216.28
413.00	216.68
414.00	216.34
415.00	216.97
416.00	216.75
417.00	217.00
418.00	216.78
419.00	216.59
420.00	216.79
421.00	216.05
422.00	216.86
423.00	216.47
424.00	216.14
425.00	216.78
426.00	216.43
427.00	218.83
428.00	216.56
429.00	216.51
430.00	216.39
431.00	216.32
432.00	219.63
433.00	217.55
434.00	216.78
435.00	218.15
436.00	218.08
437.00	220.77
438.00	216.54
439.00	216.76
440.00	216.30
441.00	217.30
442.00	216.20
443.00	216.52
444.00	216.12
445.00	216.89
446.00	217.11
447.00	216.83
448.00	216.70
449.00	216.73
450.00	216.35
451.00	216.70
452.00	216.49
453.00	216.78
454.00	216.32
455.00	216.56
456.00	216.90
457.00	216.27
458.00	216.23
459.00	216.14
460.00	217.27
461.00	216.42
462.00	216.61
463.00	216.62
464.00	216.82
465.00	219.51
466.00	219.04
467.00	215.73
468.00	216.14
469.00	216.70
470.00	216.05
471.00	216.03
472.00	216.53
473.00	216.51
474.00	216.54
475.00	216.20
476.00	215.81
477.00	215.85
478.00	216.01
479.00	215.74
480.00	216.03
481.00	216.25
482.00	216.34
483.00	216.23
484.00	216.40
485.00	216.37
486.00	217.21
487.00	216.40
488.00	216.66
489.00	216.78
490.00	216.91
491.00	216.47
492.00	216.82
493.00	216.83
494.00	216.24
495.00	215.82
496.00	217.20
497.00	215.86
498.00	215.99
499.00	216.07
500.00	215.63
501.00	215.60
502.00	215.77
503.00	215.64
504.00	216.28
505.00	215.60
506.00	216.10
507.00	216.99
508.00	216.07
509.00	216.04
510.00	215.69
511.00	216.62
512.00	215.93
513.00	215.73
514.00	215.42
515.00	215.73
516.00	215.67
517.00	215.84
518.00	215.54
519.00	216.50
520.00	216.39
521.00	215.57
522.00	216.36
523.00	215.08
524.00	215.22
525.00	216.45
526.00	216.93
527.00	215.45
528.00	215.69
529.00	216.43
530.00	215.19
531.00	215.22
532.00	215.06
533.00	215.03
534.00	215.32
535.00	215.75
536.00	214.85
537.00	215.51
538.00	215.82
539.00	215.78
540.00	216.33
541.00	216.65
542.00	219.17
543.00	219.52
544.00	219.86
545.00	218.64
546.00	219.04
547.00	218.13
548.00	216.03
549.00	215.83
550.00	215.87
551.00	216.11
552.00	215.64
553.00	215.21
554.00	215.79
555.00	215.16
556.00	216.28
557.00	214.97
558.00	215.23
559.00	214.94
560.00	216.38
561.00	215.53
562.00	214.83
563.00	215.28
564.00	215.41
565.00	215.37
566.00	215.78
567.00	216.63
568.00	215.70
569.00	214.74
570.00	217.95
571.00	222.69
572.00	215.35
573.00	217.79
574.00	217.15
575.00	214.77
576.00	214.71
577.00	215.23
578.00	214.94
579.00	215.54
580.00	215.20
581.00	215.84
582.00	215.78
583.00	216.18
584.00	216.04
585.00	215.96
586.00	216.09
587.00	216.17
588.00	215.91
589.00	215.59
590.00	215.68
591.00	215.57
592.00	215.08
593.00	215.50
594.00	215.44
595.00	214.36
596.00	215.19
597.00	215.61
598.00	215.89
599.00	216.02
600.00	214.83
601.00	215.08
602.00	214.80
603.00	215.94
604.00	214.80
605.00	215.60
606.00	215.16
607.00	214.88
608.00	214.58
609.00	215.18
610.00	215.86
611.00	219.78
612.00	219.39
613.00	217.79
614.00	215.97
615.00	216.07
616.00	215.30
617.00	215.07
618.00	217.81
619.00	215.49
620.00	215.89
621.00	217.13
622.00	215.54
623.00	215.03
624.00	215.11
625.00	214.82
626.00	214.58
627.00	214.66
628.00	215.64
629.00	216.72
630.00	214.97
631.00	215.96
632.00	215.02
633.00	215.86
634.00	215.16
635.00	215.61
636.00	216.03
637.00	214.76
638.00	215.00
639.00	214.59
640.00	216.84
641.00	214.94
642.00	214.62
643.00	215.32
644.00	214.99
645.00	214.96
646.00	216.59
647.00	215.02
648.00	214.54
649.00	214.96
650.00	214.70
651.00	214.68
652.00	214.60
653.00	214.50
654.00	215.56
655.00	214.71
656.00	214.82
657.00	215.25
658.00	215.41
659.00	215.09
660.00	214.71
661.00	214.79
662.00	214.21
663.00	214.16
664.00	218.81
665.00	215.25
666.00	214.74
667.00	216.22
668.00	217.30
669.00	214.45
670.00	214.03
671.00	214.47
672.00	214.18
673.00	215.26
674.00	214.07
675.00	214.90
676.00	215.10
677.00	215.08
678.00	214.65
679.00	214.89
680.00	215.38
681.00	217.20
682.00	218.08
683.00	214.64
684.00	219.31
685.00	218.12
686.00	214.38
687.00	214.40
688.00	214.44
689.00	214.43
690.00	214.42
691.00	215.18
692.00	214.58
693.00	214.13
694.00	214.40
695.00	214.55
696.00	214.65
697.00	216.61
698.00	214.75
699.00	214.99
700.00	214.35
701.00	214.29
702.00	214.53
703.00	214.88
704.00	214.95
705.00	214.44
706.00	214.68
707.00	215.04
708.00	214.18
709.00	215.75
710.00	214.76
711.00	214.23
712.00	215.02
713.00	214.37
714.00	215.00
715.00	214.69
716.00	214.27
717.00	214.11
718.00	214.72
719.00	214.14
720.00	214.95
721.00	214.36
722.00	214.59
723.00	215.34
724.00	215.56
725.00	224.70
726.00	213.93
727.00	214.09
728.00	215.11
729.00	214.71
730.00	214.63
731.00	215.26
732.00	214.47
733.00	214.48
734.00	215.19
735.00	214.43
736.00	214.44
737.00	214.75
738.00	214.09
739.00	215.26
740.00	214.62
741.00	213.98
742.00	214.85
743.00	214.44
744.00	214.18
745.00	219.88
746.00	214.12
747.00	213.98
748.00	213.95
749.00	214.27
750.00	214.39
751.00	214.50
752.00	213.54
753.00	214.06
754.00	214.16
755.00	214.57
756.00	214.28
757.00	215.89
758.00	216.32
759.00	216.84
760.00	214.69
761.00	214.39
762.00	215.26
763.00	217.95
764.00	213.88
765.00	214.33
766.00	214.06
767.00	214.52
768.00	214.36
769.00	214.01
770.00	214.34
771.00	214.61
772.00	213.93
773.00	214.41
774.00	213.81
775.00	217.54
776.00	214.26
777.00	214.18
778.00	214.46
779.00	217.44
780.00	214.27
781.00	214.04
782.00	214.26
783.00	214.18
784.00	214.48
785.00	214.42
786.00	214.92
787.00	215.04
788.00	214.55
789.00	216.59
790.00	214.48
791.00	214.80
792.00	214.26
793.00	214.14
794.00	214.40
795.00	214.48
796.00	213.97
797.00	214.25
798.00	215.65
799.00	214.91
800.00	214.72
801.00	214.47
802.00	214.70
803.00	216.44
804.00	213.41
805.00	213.76
806.00	215.32
807.00	213.95
808.00	215.42
809.00	215.23
810.00	215.36
811.00	214.32
812.00	215.05
813.00	215.05
814.00	215.35
815.00	214.82
816.00	214.12
817.00	216.55
818.00	214.30
819.00	215.10
820.00	214.33
821.00	214.04
822.00	215.47
823.00	215.03
824.00	213.81
825.00	219.25
826.00	215.31
827.00	214.73
828.00	213.95
829.00	215.13
830.00	214.32
831.00	214.86
832.00	214.58
833.00	214.95
834.00	214.24
835.00	215.28
836.00	214.88
837.00	214.79
838.00	214.27
839.00	214.30
840.00	215.10
841.00	214.55
842.00	215.29
843.00	217.12
844.00	214.22
845.00	214.54
846.00	214.65
847.00	215.02
848.00	214.24
849.00	213.97
850.00	214.47
851.00	214.02
852.00	214.82
853.00	215.01
854.00	214.60
855.00	214.62
856.00	219.74
857.00	214.82
858.00	216.23
859.00	214.42
860.00	214.05
861.00	216.21
862.00	214.41
863.00	213.59
864.00	216.49
865.00	215.28
866.00	214.33
867.00	214.96
868.00	215.16
869.00	214.62
870.00	214.22
871.00	214.35
872.00	215.12
873.00	215.08
874.00	213.78
875.00	214.18
876.00	215.05
877.00	213.98
878.00	214.33
879.00	214.35
880.00	214.44
881.00	214.49
882.00	214.31
883.00	214.31
884.00	213.88
885.00	214.62
886.00	213.76
887.00	215.12
888.00	214.12
889.00	214.30
890.00	215.15
891.00	216.03
892.00	215.23
893.00	214.60
894.00	213.89
895.00	216.56
896.00	213.82
897.00	213.98
898.00	214.22
899.00	214.04
900.00	215.21
901.00	214.25
902.00	214.10
903.00	217.36
904.00	213.71
905.00	213.89
906.00	216.82
907.00	214.24
908.00	214.15
909.00	213.38
910.00	214.02
911.00	214.44
912.00	214.76
913.00	214.42
914.00	215.23
915.00	214.07
916.00	214.59
917.00	215.14
918.00	214.60
919.00	215.58
920.00	214.50
921.00	215.72
922.00	214.29
923.00	214.96
924.00	214.22
925.00	215.30
926.00	214.80
927.00	214.66
928.00	213.61
929.00	214.40
930.00	214.80
931.00	213.96
932.00	213.96
933.00	214.78
934.00	214.33
935.00	213.81
936.00	213.82
937.00	214.00
938.00	215.12
939.00	214.91
940.00	214.05
941.00	214.80
942.00	215.98
943.00	214.55
944.00	214.09
945.00	217.49
946.00	213.99
947.00	214.56
948.00	214.57
949.00	214.39
950.00	214.76
951.00	214.72
952.00	214.26
953.00	214.53
954.00	213.99
955.00	215.45
956.00	214.47
957.00	214.58
958.00	214.92
959.00	214.28
960.00	214.57
961.00	214.05
962.00	214.40
963.00	214.53
964.00	214.55
965.00	213.95
966.00	214.02
967.00	215.22
968.00	214.74
969.00	214.38
970.00	214.34
971.00	214.91
972.00	214.40
973.00	216.34
974.00	215.17
975.00	214.45
976.00	215.58
977.00	214.00
978.00	214.70
979.00	214.94
980.00	214.11
981.00	214.27
982.00	214.71
983.00	215.77
984.00	214.43
985.00	215.66
986.00	214.35
987.00	214.37
988.00	215.61
989.00	214.64
990.00	214.01
991.00	215.12
992.00	214.48
993.00	215.08
994.00	214.87
995.00	214.39
996.00	214.87
997.00	215.20
998.00	215.00
999.00	214.73
1000.00	214.02
>>>>>End Processed Spectral Data<<<<<
