SpectraSuite Data File
++++++++++++++++++++++++++++++++++++
Date: Fri Jan 27 16:52:24 CST 2012
User: Helimak
Dark Spectrum Present: No
Reference Spectrum Present: No
Number of Sampled Component Spectra: 1
Spectrometers: USB2G37154
Integration Time (usec): 150000 (USB2G37154)
Spectra Averaged: 200 (USB2G37154)
Boxcar Smoothing: 0 (USB2G37154)
Correct for Electrical Dark: No (USB2G37154)
Strobe/Lamp Enabled: No (USB2G37154)
Correct for Detector Non-linearity: No (USB2G37154)
Correct for Stray Light: No (USB2G37154)
Number of Pixels in Processed Spectrum: 651
>>>>>Begin Processed Spectral Data<<<<<
350.00	212.41
351.00	213.05
352.00	212.50
353.00	212.57
354.00	213.23
355.00	214.14
356.00	213.62
357.00	212.94
358.00	214.47
359.00	213.36
360.00	213.75
361.00	213.35
362.00	215.70
363.00	213.71
364.00	215.11
365.00	214.20
366.00	214.21
367.00	213.98
368.00	214.14
369.00	214.74
370.00	214.47
371.00	214.19
372.00	214.92
373.00	214.95
374.00	215.78
375.00	217.05
376.00	214.70
377.00	215.20
378.00	217.18
379.00	215.00
380.00	215.11
381.00	215.02
382.00	215.77
383.00	217.01
384.00	215.31
385.00	215.64
386.00	215.17
387.00	216.28
388.00	215.01
389.00	215.44
390.00	215.83
391.00	215.82
392.00	215.61
393.00	215.93
394.00	216.42
395.00	215.72
396.00	215.75
397.00	215.92
398.00	215.78
399.00	216.24
400.00	215.92
401.00	215.63
402.00	216.39
403.00	216.60
404.00	216.31
405.00	216.80
406.00	216.37
407.00	216.08
408.00	216.15
409.00	216.53
410.00	215.85
411.00	215.87
412.00	216.27
413.00	216.40
414.00	216.48
415.00	216.80
416.00	216.42
417.00	216.87
418.00	216.61
419.00	216.59
420.00	217.01
421.00	216.32
422.00	216.75
423.00	216.68
424.00	216.44
425.00	216.73
426.00	216.39
427.00	218.94
428.00	216.32
429.00	216.23
430.00	216.26
431.00	216.22
432.00	219.35
433.00	217.67
434.00	217.03
435.00	218.07
436.00	218.09
437.00	221.03
438.00	216.70
439.00	216.71
440.00	216.28
441.00	217.07
442.00	216.21
443.00	216.22
444.00	216.21
445.00	216.88
446.00	216.93
447.00	216.93
448.00	216.81
449.00	216.74
450.00	216.21
451.00	216.89
452.00	215.92
453.00	216.54
454.00	216.57
455.00	216.49
456.00	216.74
457.00	216.58
458.00	216.39
459.00	216.00
460.00	216.48
461.00	216.49
462.00	216.47
463.00	216.53
464.00	216.92
465.00	219.79
466.00	219.56
467.00	216.05
468.00	216.20
469.00	216.31
470.00	216.12
471.00	215.93
472.00	216.53
473.00	216.55
474.00	216.90
475.00	216.34
476.00	215.90
477.00	215.50
478.00	215.44
479.00	215.68
480.00	216.27
481.00	216.18
482.00	216.09
483.00	216.01
484.00	216.36
485.00	216.46
486.00	217.09
487.00	216.07
488.00	216.68
489.00	216.34
490.00	216.95
491.00	216.29
492.00	217.31
493.00	216.82
494.00	216.01
495.00	215.81
496.00	217.02
497.00	215.62
498.00	215.95
499.00	215.89
500.00	215.83
501.00	216.17
502.00	215.77
503.00	215.79
504.00	216.45
505.00	215.65
506.00	216.42
507.00	216.51
508.00	216.10
509.00	216.20
510.00	215.90
511.00	216.66
512.00	216.16
513.00	215.93
514.00	215.56
515.00	215.89
516.00	215.47
517.00	215.32
518.00	215.33
519.00	216.29
520.00	216.18
521.00	216.06
522.00	216.25
523.00	215.09
524.00	214.94
525.00	216.46
526.00	216.82
527.00	215.56
528.00	215.50
529.00	216.99
530.00	215.15
531.00	215.36
532.00	215.36
533.00	215.37
534.00	215.09
535.00	215.46
536.00	215.05
537.00	215.25
538.00	215.80
539.00	215.46
540.00	216.36
541.00	216.63
542.00	218.68
543.00	219.25
544.00	219.06
545.00	218.07
546.00	218.69
547.00	218.16
548.00	215.64
549.00	215.64
550.00	215.49
551.00	216.30
552.00	215.47
553.00	215.31
554.00	215.78
555.00	215.09
556.00	215.94
557.00	214.89
558.00	215.28
559.00	214.97
560.00	216.70
561.00	215.54
562.00	215.02
563.00	215.10
564.00	214.97
565.00	215.22
566.00	215.46
567.00	216.03
568.00	215.43
569.00	214.56
570.00	218.16
571.00	222.53
572.00	215.37
573.00	217.63
574.00	216.91
575.00	214.77
576.00	215.02
577.00	214.94
578.00	214.93
579.00	215.57
580.00	214.89
581.00	215.39
582.00	215.74
583.00	215.92
584.00	215.87
585.00	215.56
586.00	216.05
587.00	216.01
588.00	215.97
589.00	215.53
590.00	215.36
591.00	215.35
592.00	215.29
593.00	215.62
594.00	215.23
595.00	214.35
596.00	214.89
597.00	215.21
598.00	215.92
599.00	215.70
600.00	214.48
601.00	215.01
602.00	214.70
603.00	215.98
604.00	214.67
605.00	215.20
606.00	214.85
607.00	214.97
608.00	214.95
609.00	214.99
610.00	215.65
611.00	218.91
612.00	218.27
613.00	217.70
614.00	215.54
615.00	215.70
616.00	215.22
617.00	214.97
618.00	217.27
619.00	224.84
620.00	215.46
621.00	217.01
622.00	215.17
623.00	214.62
624.00	214.83
625.00	214.76
626.00	214.44
627.00	214.94
628.00	215.93
629.00	216.64
630.00	214.56
631.00	215.96
632.00	215.11
633.00	215.66
634.00	214.78
635.00	215.03
636.00	216.12
637.00	214.76
638.00	214.87
639.00	214.44
640.00	216.75
641.00	214.97
642.00	214.71
643.00	215.24
644.00	214.73
645.00	214.49
646.00	216.53
647.00	214.46
648.00	214.41
649.00	214.62
650.00	214.29
651.00	214.48
652.00	214.76
653.00	214.15
654.00	215.51
655.00	214.47
656.00	215.04
657.00	215.25
658.00	215.31
659.00	215.23
660.00	214.89
661.00	214.43
662.00	214.60
663.00	214.27
664.00	219.33
665.00	215.26
666.00	214.46
667.00	216.25
668.00	217.10
669.00	214.51
670.00	214.00
671.00	214.25
672.00	214.31
673.00	215.16
674.00	214.54
675.00	215.20
676.00	215.13
677.00	214.91
678.00	214.62
679.00	214.63
680.00	215.50
681.00	217.11
682.00	218.00
683.00	214.79
684.00	219.48
685.00	218.30
686.00	214.54
687.00	214.51
688.00	213.94
689.00	214.81
690.00	214.32
691.00	215.30
692.00	214.47
693.00	214.23
694.00	213.68
695.00	214.33
696.00	215.13
697.00	216.53
698.00	214.93
699.00	214.77
700.00	214.26
701.00	214.33
702.00	214.47
703.00	215.17
704.00	215.16
705.00	214.49
706.00	214.75
707.00	214.48
708.00	213.94
709.00	215.40
710.00	214.70
711.00	214.27
712.00	214.81
713.00	214.35
714.00	214.60
715.00	214.53
716.00	214.50
717.00	214.00
718.00	214.36
719.00	214.15
720.00	214.97
721.00	214.49
722.00	214.35
723.00	215.06
724.00	215.75
725.00	225.51
726.00	213.55
727.00	214.30
728.00	215.39
729.00	214.37
730.00	214.14
731.00	215.15
732.00	214.68
733.00	214.78
734.00	215.30
735.00	214.49
736.00	214.10
737.00	214.92
738.00	214.54
739.00	215.67
740.00	214.51
741.00	213.64
742.00	214.79
743.00	214.56
744.00	214.38
745.00	219.76
746.00	213.97
747.00	214.27
748.00	213.99
749.00	214.75
750.00	214.50
751.00	214.01
752.00	213.60
753.00	214.32
754.00	214.25
755.00	214.24
756.00	214.17
757.00	215.54
758.00	216.00
759.00	216.56
760.00	215.32
761.00	214.24
762.00	215.58
763.00	218.25
764.00	213.96
765.00	214.63
766.00	213.76
767.00	214.63
768.00	214.33
769.00	214.52
770.00	214.23
771.00	214.89
772.00	214.11
773.00	214.63
774.00	213.94
775.00	217.08
776.00	214.41
777.00	214.01
778.00	214.61
779.00	217.35
780.00	214.47
781.00	213.92
782.00	214.44
783.00	214.31
784.00	214.37
785.00	214.17
786.00	214.63
787.00	215.03
788.00	214.53
789.00	216.32
790.00	214.72
791.00	214.41
792.00	214.17
793.00	214.00
794.00	214.26
795.00	214.11
796.00	213.82
797.00	214.39
798.00	215.71
799.00	215.17
800.00	214.91
801.00	214.51
802.00	214.70
803.00	216.73
804.00	213.39
805.00	213.85
806.00	215.53
807.00	214.17
808.00	215.52
809.00	215.37
810.00	215.18
811.00	214.30
812.00	214.70
813.00	215.46
814.00	214.94
815.00	214.37
816.00	213.85
817.00	216.95
818.00	214.34
819.00	215.22
820.00	214.29
821.00	213.92
822.00	215.47
823.00	214.99
824.00	213.97
825.00	219.06
826.00	215.46
827.00	214.69
828.00	214.06
829.00	214.79
830.00	214.46
831.00	214.90
832.00	214.34
833.00	214.79
834.00	214.15
835.00	215.53
836.00	214.33
837.00	214.90
838.00	214.40
839.00	214.24
840.00	214.80
841.00	214.68
842.00	214.88
843.00	215.82
844.00	214.24
845.00	214.39
846.00	214.33
847.00	215.13
848.00	214.31
849.00	213.82
850.00	214.68
851.00	213.71
852.00	214.92
853.00	215.37
854.00	214.97
855.00	214.45
856.00	219.40
857.00	214.72
858.00	216.24
859.00	214.61
860.00	214.03
861.00	216.25
862.00	214.19
863.00	213.84
864.00	216.54
865.00	215.03
866.00	214.50
867.00	214.57
868.00	214.76
869.00	214.68
870.00	214.07
871.00	214.38
872.00	215.15
873.00	214.59
874.00	213.98
875.00	214.24
876.00	215.06
877.00	214.10
878.00	214.13
879.00	214.61
880.00	214.57
881.00	214.21
882.00	214.39
883.00	214.14
884.00	214.06
885.00	214.58
886.00	214.01
887.00	215.13
888.00	214.07
889.00	214.35
890.00	214.92
891.00	216.15
892.00	214.87
893.00	214.35
894.00	214.11
895.00	216.86
896.00	213.88
897.00	213.84
898.00	213.66
899.00	213.88
900.00	214.89
901.00	214.57
902.00	214.05
903.00	217.44
904.00	213.98
905.00	214.12
906.00	216.69
907.00	214.55
908.00	214.28
909.00	213.71
910.00	213.82
911.00	214.37
912.00	214.62
913.00	214.43
914.00	214.66
915.00	214.19
916.00	214.81
917.00	214.99
918.00	214.81
919.00	215.38
920.00	214.44
921.00	215.31
922.00	214.06
923.00	214.90
924.00	214.43
925.00	215.14
926.00	214.59
927.00	214.50
928.00	213.43
929.00	214.71
930.00	214.50
931.00	214.06
932.00	214.05
933.00	214.54
934.00	213.98
935.00	214.04
936.00	213.86
937.00	213.94
938.00	215.25
939.00	214.92
940.00	214.40
941.00	214.86
942.00	216.06
943.00	214.97
944.00	213.87
945.00	217.49
946.00	214.34
947.00	214.49
948.00	214.13
949.00	214.27
950.00	214.75
951.00	214.64
952.00	214.33
953.00	214.57
954.00	213.56
955.00	215.52
956.00	214.34
957.00	214.83
958.00	214.75
959.00	214.63
960.00	214.51
961.00	214.12
962.00	214.63
963.00	214.24
964.00	214.30
965.00	213.75
966.00	213.97
967.00	215.48
968.00	214.71
969.00	214.56
970.00	214.07
971.00	214.73
972.00	214.43
973.00	216.14
974.00	215.46
975.00	214.71
976.00	215.52
977.00	213.91
978.00	214.80
979.00	214.82
980.00	214.10
981.00	214.35
982.00	215.03
983.00	216.26
984.00	214.36
985.00	215.52
986.00	214.57
987.00	214.38
988.00	215.46
989.00	214.95
990.00	213.67
991.00	214.83
992.00	214.38
993.00	215.26
994.00	214.83
995.00	214.46
996.00	214.52
997.00	215.13
998.00	214.53
999.00	215.04
1000.00	214.20
>>>>>End Processed Spectral Data<<<<<
