SpectraSuite Data File
++++++++++++++++++++++++++++++++++++
Date: Wed Jan 25 13:17:58 CST 2012
User: Helimak
Dark Spectrum Present: No
Reference Spectrum Present: No
Number of Sampled Component Spectra: 1
Spectrometers: USB2G37154
Integration Time (usec): 200000 (USB2G37154)
Spectra Averaged: 50 (USB2G37154)
Boxcar Smoothing: 0 (USB2G37154)
Correct for Electrical Dark: No (USB2G37154)
Strobe/Lamp Enabled: No (USB2G37154)
Correct for Detector Non-linearity: No (USB2G37154)
Correct for Stray Light: No (USB2G37154)
Number of Pixels in Processed Spectrum: 651
>>>>>Begin Processed Spectral Data<<<<<
350.00	211.62
351.00	213.19
352.00	212.53
353.00	212.55
354.00	213.23
355.00	214.82
356.00	213.98
357.00	212.65
358.00	215.01
359.00	213.46
360.00	213.65
361.00	213.63
362.00	215.63
363.00	213.46
364.00	216.05
365.00	214.42
366.00	214.42
367.00	213.91
368.00	213.96
369.00	214.51
370.00	214.86
371.00	214.09
372.00	215.04
373.00	215.05
374.00	215.64
375.00	218.05
376.00	214.09
377.00	214.77
378.00	217.58
379.00	215.02
380.00	214.86
381.00	215.11
382.00	215.72
383.00	216.60
384.00	214.91
385.00	216.76
386.00	215.62
387.00	215.89
388.00	215.00
389.00	215.68
390.00	215.73
391.00	216.83
392.00	215.22
393.00	215.39
394.00	217.60
395.00	216.17
396.00	216.21
397.00	215.77
398.00	215.72
399.00	216.48
400.00	216.04
401.00	215.52
402.00	216.15
403.00	216.54
404.00	216.30
405.00	216.26
406.00	215.72
407.00	216.10
408.00	215.46
409.00	216.06
410.00	215.69
411.00	216.08
412.00	216.41
413.00	216.27
414.00	216.06
415.00	216.93
416.00	216.22
417.00	217.06
418.00	217.03
419.00	216.50
420.00	216.79
421.00	215.74
422.00	216.93
423.00	216.27
424.00	215.60
425.00	216.57
426.00	216.13
427.00	219.88
428.00	215.86
429.00	216.13
430.00	216.53
431.00	215.24
432.00	220.50
433.00	217.68
434.00	217.33
435.00	217.25
436.00	218.31
437.00	222.46
438.00	216.30
439.00	216.08
440.00	216.60
441.00	217.37
442.00	216.63
443.00	216.10
444.00	216.06
445.00	216.52
446.00	216.76
447.00	216.72
448.00	216.25
449.00	216.88
450.00	216.10
451.00	216.88
452.00	215.86
453.00	217.32
454.00	216.43
455.00	216.51
456.00	216.53
457.00	216.32
458.00	216.54
459.00	215.58
460.00	217.22
461.00	216.60
462.00	217.20
463.00	216.38
464.00	216.67
465.00	220.73
466.00	220.58
467.00	215.10
468.00	216.25
469.00	215.40
470.00	215.94
471.00	216.08
472.00	216.66
473.00	216.80
474.00	217.47
475.00	216.56
476.00	215.38
477.00	215.13
478.00	215.76
479.00	215.52
480.00	216.36
481.00	216.39
482.00	215.20
483.00	216.06
484.00	216.42
485.00	215.47
486.00	216.41
487.00	215.40
488.00	216.62
489.00	216.75
490.00	217.40
491.00	216.12
492.00	216.66
493.00	216.88
494.00	215.88
495.00	215.63
496.00	217.02
497.00	215.18
498.00	215.53
499.00	215.81
500.00	215.45
501.00	215.36
502.00	215.96
503.00	216.11
504.00	216.36
505.00	215.75
506.00	216.28
507.00	217.00
508.00	216.44
509.00	215.77
510.00	215.90
511.00	217.16
512.00	215.47
513.00	215.06
514.00	215.59
515.00	215.98
516.00	214.87
517.00	215.61
518.00	216.05
519.00	216.47
520.00	216.30
521.00	215.42
522.00	216.58
523.00	215.09
524.00	215.17
525.00	216.76
526.00	217.36
527.00	215.25
528.00	216.19
529.00	217.42
530.00	215.25
531.00	214.45
532.00	215.09
533.00	214.51
534.00	214.46
535.00	215.57
536.00	215.34
537.00	215.56
538.00	216.00
539.00	215.15
540.00	215.37
541.00	214.89
542.00	217.90
543.00	218.20
544.00	218.06
545.00	216.69
546.00	217.60
547.00	218.34
548.00	215.08
549.00	215.52
550.00	215.70
551.00	216.20
552.00	214.93
553.00	215.17
554.00	215.74
555.00	215.03
556.00	215.74
557.00	214.51
558.00	215.12
559.00	214.99
560.00	216.55
561.00	215.78
562.00	214.92
563.00	214.49
564.00	215.40
565.00	215.54
566.00	215.84
567.00	216.97
568.00	214.95
569.00	214.54
570.00	219.22
571.00	225.52
572.00	215.39
573.00	218.67
574.00	217.12
575.00	214.88
576.00	215.73
577.00	215.31
578.00	214.62
579.00	215.35
580.00	214.91
581.00	215.07
582.00	215.68
583.00	216.16
584.00	215.59
585.00	215.47
586.00	215.32
587.00	215.70
588.00	215.52
589.00	215.43
590.00	215.61
591.00	215.69
592.00	214.30
593.00	215.05
594.00	215.16
595.00	213.75
596.00	214.09
597.00	215.14
598.00	215.84
599.00	215.98
600.00	215.36
601.00	215.16
602.00	214.10
603.00	215.92
604.00	213.88
605.00	216.02
606.00	214.88
607.00	215.13
608.00	214.28
609.00	213.99
610.00	214.77
611.00	217.89
612.00	217.93
613.00	217.54
614.00	215.53
615.00	215.77
616.00	214.80
617.00	214.51
618.00	218.04
619.00	228.26
620.00	215.54
621.00	217.27
622.00	215.01
623.00	214.86
624.00	214.19
625.00	214.02
626.00	214.43
627.00	214.06
628.00	215.78
629.00	217.02
630.00	214.00
631.00	216.12
632.00	214.79
633.00	215.66
634.00	215.17
635.00	215.97
636.00	216.07
637.00	213.96
638.00	215.05
639.00	213.98
640.00	216.52
641.00	214.09
642.00	214.38
643.00	214.96
644.00	215.13
645.00	214.34
646.00	217.27
647.00	214.86
648.00	214.96
649.00	215.06
650.00	214.43
651.00	214.45
652.00	214.08
653.00	214.11
654.00	215.77
655.00	215.11
656.00	215.37
657.00	215.66
658.00	215.56
659.00	215.13
660.00	214.55
661.00	214.21
662.00	213.75
663.00	214.47
664.00	219.56
665.00	215.03
666.00	214.53
667.00	217.23
668.00	217.68
669.00	214.01
670.00	214.16
671.00	213.86
672.00	214.25
673.00	215.40
674.00	214.29
675.00	214.67
676.00	215.77
677.00	214.71
678.00	214.21
679.00	214.43
680.00	215.33
681.00	217.79
682.00	219.04
683.00	214.78
684.00	220.77
685.00	219.58
686.00	214.60
687.00	214.27
688.00	214.60
689.00	214.90
690.00	213.58
691.00	215.78
692.00	214.10
693.00	214.31
694.00	214.60
695.00	213.67
696.00	216.08
697.00	217.01
698.00	214.58
699.00	215.09
700.00	213.63
701.00	214.60
702.00	213.56
703.00	215.04
704.00	214.86
705.00	214.32
706.00	214.47
707.00	214.31
708.00	213.54
709.00	215.45
710.00	214.83
711.00	213.78
712.00	214.53
713.00	214.20
714.00	214.50
715.00	214.45
716.00	214.24
717.00	213.94
718.00	214.17
719.00	213.46
720.00	215.08
721.00	214.81
722.00	214.26
723.00	215.49
724.00	215.89
725.00	229.10
726.00	213.37
727.00	214.22
728.00	215.22
729.00	214.48
730.00	214.42
731.00	215.64
732.00	214.55
733.00	215.11
734.00	214.90
735.00	214.23
736.00	214.21
737.00	214.47
738.00	214.09
739.00	215.31
740.00	214.46
741.00	213.73
742.00	214.22
743.00	214.08
744.00	213.81
745.00	221.22
746.00	213.49
747.00	213.64
748.00	213.89
749.00	214.25
750.00	214.69
751.00	213.84
752.00	213.12
753.00	213.82
754.00	213.88
755.00	214.75
756.00	214.32
757.00	216.14
758.00	216.36
759.00	216.97
760.00	215.35
761.00	213.71
762.00	215.16
763.00	218.75
764.00	213.37
765.00	215.11
766.00	213.78
767.00	214.52
768.00	214.53
769.00	214.16
770.00	214.35
771.00	214.93
772.00	213.79
773.00	214.38
774.00	213.41
775.00	217.83
776.00	214.60
777.00	213.55
778.00	214.35
779.00	218.12
780.00	213.65
781.00	213.73
782.00	213.99
783.00	213.47
784.00	214.20
785.00	213.81
786.00	214.92
787.00	214.90
788.00	214.28
789.00	217.22
790.00	214.20
791.00	214.79
792.00	213.96
793.00	214.48
794.00	213.90
795.00	213.57
796.00	213.94
797.00	214.36
798.00	216.02
799.00	214.81
800.00	214.55
801.00	214.38
802.00	214.65
803.00	217.13
804.00	212.85
805.00	213.20
806.00	215.22
807.00	214.56
808.00	216.04
809.00	215.40
810.00	215.26
811.00	214.04
812.00	214.62
813.00	214.92
814.00	214.88
815.00	214.71
816.00	213.65
817.00	216.79
818.00	213.51
819.00	214.84
820.00	214.19
821.00	213.94
822.00	216.04
823.00	215.02
824.00	214.08
825.00	220.56
826.00	215.43
827.00	213.91
828.00	213.59
829.00	214.92
830.00	213.66
831.00	214.89
832.00	214.33
833.00	214.85
834.00	214.17
835.00	214.97
836.00	214.61
837.00	214.47
838.00	214.24
839.00	214.09
840.00	214.82
841.00	213.89
842.00	215.60
843.00	216.69
844.00	214.24
845.00	214.16
846.00	213.73
847.00	215.07
848.00	213.61
849.00	213.44
850.00	214.85
851.00	213.77
852.00	214.87
853.00	215.77
854.00	214.67
855.00	214.75
856.00	221.97
857.00	215.12
858.00	216.88
859.00	214.62
860.00	214.23
861.00	216.96
862.00	214.23
863.00	213.40
864.00	216.48
865.00	215.47
866.00	214.48
867.00	213.92
868.00	215.00
869.00	214.26
870.00	214.17
871.00	214.09
872.00	215.49
873.00	214.69
874.00	214.12
875.00	214.08
876.00	214.55
877.00	213.52
878.00	213.70
879.00	213.88
880.00	214.61
881.00	213.87
882.00	213.79
883.00	214.61
884.00	213.86
885.00	214.43
886.00	213.79
887.00	215.19
888.00	214.32
889.00	214.73
890.00	215.11
891.00	216.95
892.00	215.17
893.00	214.35
894.00	214.07
895.00	216.94
896.00	213.75
897.00	214.12
898.00	213.42
899.00	213.77
900.00	215.04
901.00	214.08
902.00	214.30
903.00	218.11
904.00	214.57
905.00	214.44
906.00	217.21
907.00	214.40
908.00	214.23
909.00	212.97
910.00	213.71
911.00	213.91
912.00	214.27
913.00	214.29
914.00	215.41
915.00	214.80
916.00	214.55
917.00	215.78
918.00	214.80
919.00	215.79
920.00	214.03
921.00	216.07
922.00	213.80
923.00	214.67
924.00	214.54
925.00	214.90
926.00	214.98
927.00	214.76
928.00	213.04
929.00	214.04
930.00	213.98
931.00	213.88
932.00	214.45
933.00	215.21
934.00	214.03
935.00	213.12
936.00	213.86
937.00	213.28
938.00	215.35
939.00	214.89
940.00	214.36
941.00	215.42
942.00	216.06
943.00	214.68
944.00	213.56
945.00	218.21
946.00	213.68
947.00	214.13
948.00	213.93
949.00	214.19
950.00	214.56
951.00	214.79
952.00	213.51
953.00	214.66
954.00	212.96
955.00	216.03
956.00	214.56
957.00	215.44
958.00	215.29
959.00	214.60
960.00	214.26
961.00	214.33
962.00	213.92
963.00	213.75
964.00	214.44
965.00	213.37
966.00	214.75
967.00	215.51
968.00	214.87
969.00	214.02
970.00	214.59
971.00	215.48
972.00	215.09
973.00	217.17
974.00	215.99
975.00	214.15
976.00	215.88
977.00	213.88
978.00	214.88
979.00	215.03
980.00	213.17
981.00	213.87
982.00	215.04
983.00	216.67
984.00	214.69
985.00	216.35
986.00	214.87
987.00	214.55
988.00	215.87
989.00	214.91
990.00	213.48
991.00	214.06
992.00	214.64
993.00	214.96
994.00	214.73
995.00	214.26
996.00	214.49
997.00	215.15
998.00	215.02
999.00	215.03
1000.00	214.25
>>>>>End Processed Spectral Data<<<<<
