SpectraSuite Data File
++++++++++++++++++++++++++++++++++++
Date: Wed Jan 25 13:08:04 CST 2012
User: Helimak
Dark Spectrum Present: No
Reference Spectrum Present: No
Number of Sampled Component Spectra: 1
Spectrometers: USB2G37154
Integration Time (usec): 200000 (USB2G37154)
Spectra Averaged: 50 (USB2G37154)
Boxcar Smoothing: 0 (USB2G37154)
Correct for Electrical Dark: No (USB2G37154)
Strobe/Lamp Enabled: No (USB2G37154)
Correct for Detector Non-linearity: No (USB2G37154)
Correct for Stray Light: No (USB2G37154)
Number of Pixels in Processed Spectrum: 651
>>>>>Begin Processed Spectral Data<<<<<
350.00	212.90
351.00	213.64
352.00	212.50
353.00	212.44
354.00	213.36
355.00	214.70
356.00	213.58
357.00	213.09
358.00	215.56
359.00	213.12
360.00	213.47
361.00	213.76
362.00	216.25
363.00	213.55
364.00	215.98
365.00	214.55
366.00	214.48
367.00	214.66
368.00	213.65
369.00	214.36
370.00	214.88
371.00	214.17
372.00	214.95
373.00	214.96
374.00	215.79
375.00	217.77
376.00	214.18
377.00	215.05
378.00	217.64
379.00	215.11
380.00	215.04
381.00	214.91
382.00	215.35
383.00	217.09
384.00	214.93
385.00	215.92
386.00	215.70
387.00	216.40
388.00	215.12
389.00	215.35
390.00	215.79
391.00	215.90
392.00	215.95
393.00	215.84
394.00	216.87
395.00	215.74
396.00	215.87
397.00	215.89
398.00	216.21
399.00	216.87
400.00	215.92
401.00	215.49
402.00	216.45
403.00	216.57
404.00	216.37
405.00	217.25
406.00	215.90
407.00	216.26
408.00	216.15
409.00	216.38
410.00	215.51
411.00	215.73
412.00	216.41
413.00	216.47
414.00	216.58
415.00	217.29
416.00	217.24
417.00	216.89
418.00	216.79
419.00	216.96
420.00	217.08
421.00	216.47
422.00	216.87
423.00	216.38
424.00	216.51
425.00	217.13
426.00	216.86
427.00	219.48
428.00	216.75
429.00	216.06
430.00	216.21
431.00	215.83
432.00	220.78
433.00	217.83
434.00	217.18
435.00	217.41
436.00	218.63
437.00	222.30
438.00	216.45
439.00	216.56
440.00	216.87
441.00	217.86
442.00	215.84
443.00	215.87
444.00	215.72
445.00	216.55
446.00	217.47
447.00	216.85
448.00	216.44
449.00	216.69
450.00	216.44
451.00	217.47
452.00	215.94
453.00	216.60
454.00	217.00
455.00	217.08
456.00	216.63
457.00	216.48
458.00	216.95
459.00	215.77
460.00	217.22
461.00	216.83
462.00	216.79
463.00	216.62
464.00	217.19
465.00	220.70
466.00	220.39
467.00	216.15
468.00	216.22
469.00	216.79
470.00	216.08
471.00	216.35
472.00	217.11
473.00	216.75
474.00	217.47
475.00	216.19
476.00	215.82
477.00	215.37
478.00	215.87
479.00	215.57
480.00	215.78
481.00	216.25
482.00	216.64
483.00	216.85
484.00	216.56
485.00	217.01
486.00	216.84
487.00	216.74
488.00	216.53
489.00	216.57
490.00	217.92
491.00	216.77
492.00	218.16
493.00	217.37
494.00	216.19
495.00	215.32
496.00	217.15
497.00	216.11
498.00	215.71
499.00	216.33
500.00	215.85
501.00	215.58
502.00	216.76
503.00	216.10
504.00	216.89
505.00	215.83
506.00	217.01
507.00	217.40
508.00	216.47
509.00	216.27
510.00	215.93
511.00	216.38
512.00	216.33
513.00	215.57
514.00	215.48
515.00	215.74
516.00	215.77
517.00	215.91
518.00	215.71
519.00	216.42
520.00	217.14
521.00	216.08
522.00	216.23
523.00	214.69
524.00	214.67
525.00	216.52
526.00	217.60
527.00	214.95
528.00	215.77
529.00	217.21
530.00	215.09
531.00	214.78
532.00	215.53
533.00	215.29
534.00	215.52
535.00	215.87
536.00	214.57
537.00	215.07
538.00	216.54
539.00	215.56
540.00	215.71
541.00	216.54
542.00	219.08
543.00	219.96
544.00	219.99
545.00	218.35
546.00	219.13
547.00	218.32
548.00	215.91
549.00	216.10
550.00	215.87
551.00	216.58
552.00	215.50
553.00	215.28
554.00	216.08
555.00	215.37
556.00	215.63
557.00	214.65
558.00	215.18
559.00	214.76
560.00	217.53
561.00	216.36
562.00	214.83
563.00	214.82
564.00	215.53
565.00	215.43
566.00	215.29
567.00	216.49
568.00	215.59
569.00	214.57
570.00	219.26
571.00	225.44
572.00	215.43
573.00	218.33
574.00	217.75
575.00	214.64
576.00	215.33
577.00	215.93
578.00	214.39
579.00	215.39
580.00	215.55
581.00	215.37
582.00	215.58
583.00	215.68
584.00	216.27
585.00	216.23
586.00	217.48
587.00	216.33
588.00	215.84
589.00	215.30
590.00	215.29
591.00	215.39
592.00	214.66
593.00	215.53
594.00	215.24
595.00	214.15
596.00	215.19
597.00	215.60
598.00	216.35
599.00	216.13
600.00	214.58
601.00	215.45
602.00	214.19
603.00	216.20
604.00	214.63
605.00	215.30
606.00	215.32
607.00	215.17
608.00	215.02
609.00	214.63
610.00	216.20
611.00	219.05
612.00	219.30
613.00	218.99
614.00	215.82
615.00	216.42
616.00	215.55
617.00	215.17
618.00	218.12
619.00	215.26
620.00	216.18
621.00	217.77
622.00	216.05
623.00	215.26
624.00	214.88
625.00	214.82
626.00	214.63
627.00	214.61
628.00	216.10
629.00	217.71
630.00	214.55
631.00	216.28
632.00	215.28
633.00	216.71
634.00	214.29
635.00	216.47
636.00	216.68
637.00	214.50
638.00	215.28
639.00	214.27
640.00	217.43
641.00	215.28
642.00	214.08
643.00	215.06
644.00	214.91
645.00	214.17
646.00	217.87
647.00	214.62
648.00	213.88
649.00	215.82
650.00	214.52
651.00	214.50
652.00	214.67
653.00	214.41
654.00	215.83
655.00	215.08
656.00	215.64
657.00	215.52
658.00	214.86
659.00	215.53
660.00	215.72
661.00	214.51
662.00	213.84
663.00	214.28
664.00	220.71
665.00	214.49
666.00	214.14
667.00	216.09
668.00	218.10
669.00	213.76
670.00	214.58
671.00	213.78
672.00	214.32
673.00	215.99
674.00	214.33
675.00	215.33
676.00	215.17
677.00	214.62
678.00	214.58
679.00	214.56
680.00	215.51
681.00	217.68
682.00	218.91
683.00	214.89
684.00	220.39
685.00	219.76
686.00	214.43
687.00	214.41
688.00	214.69
689.00	214.44
690.00	213.83
691.00	215.23
692.00	214.94
693.00	214.29
694.00	214.10
695.00	214.13
696.00	215.10
697.00	218.07
698.00	214.59
699.00	215.64
700.00	214.12
701.00	214.33
702.00	214.20
703.00	214.79
704.00	215.10
705.00	214.74
706.00	215.29
707.00	214.91
708.00	213.12
709.00	215.98
710.00	214.27
711.00	214.32
712.00	214.54
713.00	214.09
714.00	214.58
715.00	214.43
716.00	213.87
717.00	213.77
718.00	213.72
719.00	214.44
720.00	215.20
721.00	214.63
722.00	213.57
723.00	215.84
724.00	215.38
725.00	228.90
726.00	213.38
727.00	214.02
728.00	214.85
729.00	214.00
730.00	213.92
731.00	215.55
732.00	214.49
733.00	214.79
734.00	215.38
735.00	214.60
736.00	214.05
737.00	215.19
738.00	213.99
739.00	214.96
740.00	214.91
741.00	214.00
742.00	214.13
743.00	213.67
744.00	214.58
745.00	222.05
746.00	213.38
747.00	214.30
748.00	214.05
749.00	214.34
750.00	214.11
751.00	214.12
752.00	213.30
753.00	214.06
754.00	214.68
755.00	213.78
756.00	214.06
757.00	215.81
758.00	216.80
759.00	217.34
760.00	215.26
761.00	214.20
762.00	215.78
763.00	219.08
764.00	213.93
765.00	214.49
766.00	213.89
767.00	214.18
768.00	214.39
769.00	214.70
770.00	214.23
771.00	214.91
772.00	214.00
773.00	214.37
774.00	214.46
775.00	218.11
776.00	214.80
777.00	214.24
778.00	214.09
779.00	218.31
780.00	214.05
781.00	213.47
782.00	214.34
783.00	213.73
784.00	214.68
785.00	215.02
786.00	214.98
787.00	215.44
788.00	214.49
789.00	217.45
790.00	214.80
791.00	214.92
792.00	213.57
793.00	214.32
794.00	214.44
795.00	214.15
796.00	213.45
797.00	213.50
798.00	217.16
799.00	215.28
800.00	214.93
801.00	214.38
802.00	215.33
803.00	216.73
804.00	213.16
805.00	213.72
806.00	215.96
807.00	213.92
808.00	216.33
809.00	216.71
810.00	215.12
811.00	214.25
812.00	215.26
813.00	214.53
814.00	215.44
815.00	214.38
816.00	214.32
817.00	217.99
818.00	214.39
819.00	215.60
820.00	214.26
821.00	213.95
822.00	215.73
823.00	215.06
824.00	213.69
825.00	221.24
826.00	216.03
827.00	214.79
828.00	214.53
829.00	215.39
830.00	215.10
831.00	215.38
832.00	214.61
833.00	214.99
834.00	213.56
835.00	215.89
836.00	215.01
837.00	214.67
838.00	214.89
839.00	214.06
840.00	215.41
841.00	214.54
842.00	215.43
843.00	217.09
844.00	214.05
845.00	214.59
846.00	214.12
847.00	215.21
848.00	213.96
849.00	213.83
850.00	214.11
851.00	213.99
852.00	214.65
853.00	215.79
854.00	215.53
855.00	214.95
856.00	221.24
857.00	214.84
858.00	216.66
859.00	214.48
860.00	213.65
861.00	217.05
862.00	213.99
863.00	213.74
864.00	217.30
865.00	215.12
866.00	213.84
867.00	214.09
868.00	215.42
869.00	215.17
870.00	213.91
871.00	214.49
872.00	215.79
873.00	214.98
874.00	213.87
875.00	214.37
876.00	215.25
877.00	213.67
878.00	214.53
879.00	214.62
880.00	214.30
881.00	214.40
882.00	214.44
883.00	213.94
884.00	213.26
885.00	213.71
886.00	214.30
887.00	214.84
888.00	214.51
889.00	213.89
890.00	215.92
891.00	216.08
892.00	215.94
893.00	213.93
894.00	214.38
895.00	217.28
896.00	213.81
897.00	213.78
898.00	214.46
899.00	214.04
900.00	216.08
901.00	214.51
902.00	214.49
903.00	217.96
904.00	214.29
905.00	214.14
906.00	217.52
907.00	214.91
908.00	213.76
909.00	213.34
910.00	214.08
911.00	214.05
912.00	215.12
913.00	214.49
914.00	215.31
915.00	214.60
916.00	214.87
917.00	215.47
918.00	214.58
919.00	215.61
920.00	214.32
921.00	216.39
922.00	214.06
923.00	214.47
924.00	214.58
925.00	215.33
926.00	214.16
927.00	215.62
928.00	213.61
929.00	214.52
930.00	214.91
931.00	213.95
932.00	213.97
933.00	214.68
934.00	214.09
935.00	213.60
936.00	213.45
937.00	214.39
938.00	215.21
939.00	215.59
940.00	215.11
941.00	215.36
942.00	217.27
943.00	215.08
944.00	214.37
945.00	218.85
946.00	213.93
947.00	214.82
948.00	214.19
949.00	213.99
950.00	214.47
951.00	215.07
952.00	213.75
953.00	214.96
954.00	213.57
955.00	214.94
956.00	214.89
957.00	215.55
958.00	214.97
959.00	215.00
960.00	214.61
961.00	214.12
962.00	214.37
963.00	215.26
964.00	214.80
965.00	213.78
966.00	214.23
967.00	215.29
968.00	214.88
969.00	213.86
970.00	214.60
971.00	215.64
972.00	215.19
973.00	217.22
974.00	215.87
975.00	214.90
976.00	215.52
977.00	214.64
978.00	214.77
979.00	215.03
980.00	213.34
981.00	214.25
982.00	215.68
983.00	216.65
984.00	214.49
985.00	216.19
986.00	214.45
987.00	214.81
988.00	215.69
989.00	215.43
990.00	213.94
991.00	215.86
992.00	215.27
993.00	214.84
994.00	214.66
995.00	214.66
996.00	215.03
997.00	215.24
998.00	214.46
999.00	215.26
1000.00	213.49
>>>>>End Processed Spectral Data<<<<<
