SpectraSuite Data File
++++++++++++++++++++++++++++++++++++
Date: Wed Jan 25 13:12:41 CST 2012
User: Helimak
Dark Spectrum Present: No
Reference Spectrum Present: No
Number of Sampled Component Spectra: 1
Spectrometers: USB2G37154
Integration Time (usec): 200000 (USB2G37154)
Spectra Averaged: 50 (USB2G37154)
Boxcar Smoothing: 0 (USB2G37154)
Correct for Electrical Dark: No (USB2G37154)
Strobe/Lamp Enabled: No (USB2G37154)
Correct for Detector Non-linearity: No (USB2G37154)
Correct for Stray Light: No (USB2G37154)
Number of Pixels in Processed Spectrum: 651
>>>>>Begin Processed Spectral Data<<<<<
350.00	212.93
351.00	215.00
352.00	213.21
353.00	213.47
354.00	214.44
355.00	215.08
356.00	215.33
357.00	213.87
358.00	216.25
359.00	214.45
360.00	215.37
361.00	214.50
362.00	217.70
363.00	214.81
364.00	216.75
365.00	215.58
366.00	215.07
367.00	215.00
368.00	214.56
369.00	215.49
370.00	215.67
371.00	214.63
372.00	216.07
373.00	216.10
374.00	217.26
375.00	219.45
376.00	216.01
377.00	216.74
378.00	219.04
379.00	216.19
380.00	216.13
381.00	216.13
382.00	217.57
383.00	218.94
384.00	216.07
385.00	217.28
386.00	216.62
387.00	217.64
388.00	216.28
389.00	216.49
390.00	217.15
391.00	218.01
392.00	217.27
393.00	217.94
394.00	218.48
395.00	217.91
396.00	218.38
397.00	218.32
398.00	218.34
399.00	219.27
400.00	218.68
401.00	218.59
402.00	219.79
403.00	220.51
404.00	221.13
405.00	222.26
406.00	222.10
407.00	222.83
408.00	224.50
409.00	225.86
410.00	226.85
411.00	228.09
412.00	230.35
413.00	232.38
414.00	233.11
415.00	236.15
416.00	237.31
417.00	240.60
418.00	241.90
419.00	244.31
420.00	247.01
421.00	247.84
422.00	252.11
423.00	253.26
424.00	256.54
425.00	259.43
426.00	261.71
427.00	268.78
428.00	267.46
429.00	269.60
430.00	271.00
431.00	272.20
432.00	277.75
433.00	274.66
434.00	273.02
435.00	276.77
436.00	277.15
437.00	282.06
438.00	276.66
439.00	278.61
440.00	278.82
441.00	279.66
442.00	280.15
443.00	281.39
444.00	282.38
445.00	283.39
446.00	287.02
447.00	288.53
448.00	291.12
449.00	293.95
450.00	295.94
451.00	301.43
452.00	304.61
453.00	308.45
454.00	310.57
455.00	314.42
456.00	318.94
457.00	320.26
458.00	322.88
459.00	323.57
460.00	325.52
461.00	325.39
462.00	328.76
463.00	327.28
464.00	326.92
465.00	331.19
466.00	330.10
467.00	325.57
468.00	327.94
469.00	328.52
470.00	328.49
471.00	330.12
472.00	332.14
473.00	335.65
474.00	339.29
475.00	341.54
476.00	344.61
477.00	349.63
478.00	354.10
479.00	359.12
480.00	365.79
481.00	370.26
482.00	378.55
483.00	384.41
484.00	394.52
485.00	400.47
486.00	409.05
487.00	415.81
488.00	423.50
489.00	434.27
490.00	440.33
491.00	446.23
492.00	455.14
493.00	460.38
494.00	463.71
495.00	467.67
496.00	471.11
497.00	473.41
498.00	473.24
499.00	475.30
500.00	475.12
501.00	474.83
502.00	473.38
503.00	474.12
504.00	475.86
505.00	474.49
506.00	478.09
507.00	478.34
508.00	475.31
509.00	477.12
510.00	476.93
511.00	480.96
512.00	480.08
513.00	483.39
514.00	483.07
515.00	486.19
516.00	490.75
517.00	492.37
518.00	498.17
519.00	503.30
520.00	508.17
521.00	511.36
522.00	517.19
523.00	522.26
524.00	527.52
525.00	535.14
526.00	542.03
527.00	548.52
528.00	554.78
529.00	566.01
530.00	567.86
531.00	577.08
532.00	584.74
533.00	589.44
534.00	595.67
535.00	601.79
536.00	605.56
537.00	610.76
538.00	614.42
539.00	614.98
540.00	616.87
541.00	620.02
542.00	622.04
543.00	621.38
544.00	622.89
545.00	616.62
546.00	618.57
547.00	615.86
548.00	611.89
549.00	610.58
550.00	609.76
551.00	607.43
552.00	607.27
553.00	605.64
554.00	608.07
555.00	606.96
556.00	610.23
557.00	607.68
558.00	609.21
559.00	609.45
560.00	613.47
561.00	615.92
562.00	619.79
563.00	619.38
564.00	624.52
565.00	628.55
566.00	632.91
567.00	636.57
568.00	637.55
569.00	640.31
570.00	650.24
571.00	665.20
572.00	657.48
573.00	667.94
574.00	669.90
575.00	673.35
576.00	679.99
577.00	681.41
578.00	687.18
579.00	692.89
580.00	698.08
581.00	702.08
582.00	703.45
583.00	709.74
584.00	713.73
585.00	708.89
586.00	712.92
587.00	711.12
588.00	711.25
589.00	711.75
590.00	711.70
591.00	711.71
592.00	710.90
593.00	709.94
594.00	712.62
595.00	706.23
596.00	707.26
597.00	705.15
598.00	704.70
599.00	706.45
600.00	703.72
601.00	703.29
602.00	700.53
603.00	703.63
604.00	701.17
605.00	701.39
606.00	700.97
607.00	701.42
608.00	702.84
609.00	702.26
610.00	701.76
611.00	711.25
612.00	712.37
613.00	712.37
614.00	710.91
615.00	714.90
616.00	714.54
617.00	715.84
618.00	722.25
619.00	734.89
620.00	724.28
621.00	729.19
622.00	731.50
623.00	732.11
624.00	735.23
625.00	738.96
626.00	741.03
627.00	744.38
628.00	750.33
629.00	754.75
630.00	753.40
631.00	760.30
632.00	758.11
633.00	756.67
634.00	763.04
635.00	763.68
636.00	766.82
637.00	762.92
638.00	766.86
639.00	764.00
640.00	770.64
641.00	764.96
642.00	758.84
643.00	760.43
644.00	756.03
645.00	753.76
646.00	752.49
647.00	747.30
648.00	744.09
649.00	741.19
650.00	736.66
651.00	734.71
652.00	729.35
653.00	725.38
654.00	722.32
655.00	717.29
656.00	714.93
657.00	710.60
658.00	710.19
659.00	703.72
660.00	698.72
661.00	696.88
662.00	693.84
663.00	695.15
664.00	695.79
665.00	685.79
666.00	683.31
667.00	681.40
668.00	681.83
669.00	674.63
670.00	675.04
671.00	671.28
672.00	668.15
673.00	669.92
674.00	667.28
675.00	663.49
676.00	669.61
677.00	662.52
678.00	665.68
679.00	663.69
680.00	662.57
681.00	665.34
682.00	664.97
683.00	661.03
684.00	669.36
685.00	667.24
686.00	659.18
687.00	660.75
688.00	661.27
689.00	662.16
690.00	664.10
691.00	664.26
692.00	662.36
693.00	664.15
694.00	666.46
695.00	666.35
696.00	668.44
697.00	672.11
698.00	669.26
699.00	670.19
700.00	669.15
701.00	670.07
702.00	668.99
703.00	669.47
704.00	666.10
705.00	668.14
706.00	665.06
707.00	662.33
708.00	662.11
709.00	661.81
710.00	658.05
711.00	654.96
712.00	653.85
713.00	647.30
714.00	644.69
715.00	641.57
716.00	634.67
717.00	630.83
718.00	625.94
719.00	619.28
720.00	614.89
721.00	607.98
722.00	601.47
723.00	599.13
724.00	592.77
725.00	603.57
726.00	581.25
727.00	576.01
728.00	576.85
729.00	571.09
730.00	567.88
731.00	566.84
732.00	562.80
733.00	560.14
734.00	555.27
735.00	554.74
736.00	547.98
737.00	545.68
738.00	546.57
739.00	539.49
740.00	541.31
741.00	537.72
742.00	530.69
743.00	529.13
744.00	524.92
745.00	530.05
746.00	517.15
747.00	516.94
748.00	513.80
749.00	510.38
750.00	506.28
751.00	506.07
752.00	500.80
753.00	502.65
754.00	500.17
755.00	497.99
756.00	493.87
757.00	494.73
758.00	494.36
759.00	495.66
760.00	488.99
761.00	488.59
762.00	486.71
763.00	485.76
764.00	478.19
765.00	477.55
766.00	475.89
767.00	475.99
768.00	472.42
769.00	472.13
770.00	468.82
771.00	469.46
772.00	467.38
773.00	466.30
774.00	464.84
775.00	464.56
776.00	458.79
777.00	458.57
778.00	454.90
779.00	458.52
780.00	452.18
781.00	451.43
782.00	452.32
783.00	451.87
784.00	451.81
785.00	453.55
786.00	454.28
787.00	457.66
788.00	457.62
789.00	461.23
790.00	457.74
791.00	460.30
792.00	460.25
793.00	461.34
794.00	462.64
795.00	463.32
796.00	462.52
797.00	464.93
798.00	465.14
799.00	464.46
800.00	464.30
801.00	461.70
802.00	462.80
803.00	464.20
804.00	457.38
805.00	457.51
806.00	457.71
807.00	454.56
808.00	455.52
809.00	452.14
810.00	448.44
811.00	446.18
812.00	444.10
813.00	441.98
814.00	437.45
815.00	435.31
816.00	432.74
817.00	431.18
818.00	426.55
819.00	424.42
820.00	419.59
821.00	417.16
822.00	416.10
823.00	412.77
824.00	407.95
825.00	412.22
826.00	402.45
827.00	401.39
828.00	396.30
829.00	394.94
830.00	389.68
831.00	387.01
832.00	385.29
833.00	383.25
834.00	379.25
835.00	379.32
836.00	375.50
837.00	371.38
838.00	369.77
839.00	367.38
840.00	364.55
841.00	362.55
842.00	362.19
843.00	359.22
844.00	356.65
845.00	354.74
846.00	351.99
847.00	350.31
848.00	347.02
849.00	345.92
850.00	344.36
851.00	342.00
852.00	341.61
853.00	340.22
854.00	335.59
855.00	334.77
856.00	339.11
857.00	332.86
858.00	332.04
859.00	328.64
860.00	326.33
861.00	328.28
862.00	323.74
863.00	321.80
864.00	323.02
865.00	320.96
866.00	317.06
867.00	317.44
868.00	315.40
869.00	314.05
870.00	310.71
871.00	309.75
872.00	310.19
873.00	308.08
874.00	303.26
875.00	302.97
876.00	302.52
877.00	300.76
878.00	299.17
879.00	297.34
880.00	296.55
881.00	296.08
882.00	293.84
883.00	292.48
884.00	291.80
885.00	291.83
886.00	289.94
887.00	290.14
888.00	288.39
889.00	287.76
890.00	288.72
891.00	288.88
892.00	287.20
893.00	285.80
894.00	284.26
895.00	288.33
896.00	284.65
897.00	283.95
898.00	284.32
899.00	283.71
900.00	284.92
901.00	284.66
902.00	283.95
903.00	288.27
904.00	284.22
905.00	284.02
906.00	287.24
907.00	283.93
908.00	283.43
909.00	283.22
910.00	284.14
911.00	283.45
912.00	283.26
913.00	282.93
914.00	282.17
915.00	281.51
916.00	282.44
917.00	281.50
918.00	279.66
919.00	278.93
920.00	277.17
921.00	278.55
922.00	274.67
923.00	274.55
924.00	272.59
925.00	272.18
926.00	271.50
927.00	269.22
928.00	266.26
929.00	265.57
930.00	264.33
931.00	262.13
932.00	260.06
933.00	259.32
934.00	256.45
935.00	253.78
936.00	251.69
937.00	249.43
938.00	247.07
939.00	244.41
940.00	240.00
941.00	238.57
942.00	237.48
943.00	234.26
944.00	231.99
945.00	234.82
946.00	231.76
947.00	231.87
948.00	230.37
949.00	230.66
950.00	230.57
951.00	231.97
952.00	230.19
953.00	231.77
954.00	230.76
955.00	233.50
956.00	231.95
957.00	232.33
958.00	232.28
959.00	231.50
960.00	231.87
961.00	231.53
962.00	230.87
963.00	230.99
964.00	231.54
965.00	230.28
966.00	230.04
967.00	231.41
968.00	231.01
969.00	228.70
970.00	229.20
971.00	229.08
972.00	228.88
973.00	231.13
974.00	229.25
975.00	227.10
976.00	229.02
977.00	226.52
978.00	226.92
979.00	226.36
980.00	224.74
981.00	224.97
982.00	225.61
983.00	227.15
984.00	224.27
985.00	225.44
986.00	223.42
987.00	223.18
988.00	224.52
989.00	222.80
990.00	221.76
991.00	222.57
992.00	222.29
993.00	222.73
994.00	221.31
995.00	220.68
996.00	221.08
997.00	221.31
998.00	221.35
999.00	220.83
1000.00	219.19
>>>>>End Processed Spectral Data<<<<<
