SpectraSuite Data File
++++++++++++++++++++++++++++++++++++
Date: Fri Jan 27 16:47:48 CST 2012
User: Helimak
Dark Spectrum Present: No
Reference Spectrum Present: No
Number of Sampled Component Spectra: 1
Spectrometers: USB2G37154
Integration Time (usec): 150000 (USB2G37154)
Spectra Averaged: 200 (USB2G37154)
Boxcar Smoothing: 0 (USB2G37154)
Correct for Electrical Dark: No (USB2G37154)
Strobe/Lamp Enabled: No (USB2G37154)
Correct for Detector Non-linearity: No (USB2G37154)
Correct for Stray Light: No (USB2G37154)
Number of Pixels in Processed Spectrum: 651
>>>>>Begin Processed Spectral Data<<<<<
350.00	212.14
351.00	213.12
352.00	212.43
353.00	212.92
354.00	213.12
355.00	213.68
356.00	213.73
357.00	212.74
358.00	214.84
359.00	213.04
360.00	213.72
361.00	213.54
362.00	215.49
363.00	213.40
364.00	215.39
365.00	214.09
366.00	214.04
367.00	214.07
368.00	213.93
369.00	214.49
370.00	215.14
371.00	214.01
372.00	215.11
373.00	214.93
374.00	215.65
375.00	217.22
376.00	214.80
377.00	215.19
378.00	216.73
379.00	215.23
380.00	215.07
381.00	215.10
382.00	215.85
383.00	216.47
384.00	214.94
385.00	215.39
386.00	215.27
387.00	215.91
388.00	215.06
389.00	215.48
390.00	215.58
391.00	215.94
392.00	215.77
393.00	215.96
394.00	216.55
395.00	215.90
396.00	215.93
397.00	216.18
398.00	215.54
399.00	216.53
400.00	215.91
401.00	215.41
402.00	216.23
403.00	216.41
404.00	216.53
405.00	216.44
406.00	216.09
407.00	216.52
408.00	216.38
409.00	216.21
410.00	215.77
411.00	216.00
412.00	216.44
413.00	216.81
414.00	216.10
415.00	217.18
416.00	216.67
417.00	217.06
418.00	216.64
419.00	216.78
420.00	216.68
421.00	216.25
422.00	216.61
423.00	216.50
424.00	215.91
425.00	216.48
426.00	216.27
427.00	218.83
428.00	215.95
429.00	216.42
430.00	216.50
431.00	216.13
432.00	219.34
433.00	217.48
434.00	216.77
435.00	218.10
436.00	218.08
437.00	220.98
438.00	216.79
439.00	216.41
440.00	216.67
441.00	217.18
442.00	216.25
443.00	216.41
444.00	216.35
445.00	216.68
446.00	217.29
447.00	216.75
448.00	216.74
449.00	216.58
450.00	216.05
451.00	216.66
452.00	215.80
453.00	216.61
454.00	216.44
455.00	216.57
456.00	216.77
457.00	216.39
458.00	216.34
459.00	215.95
460.00	216.80
461.00	216.48
462.00	216.87
463.00	216.77
464.00	216.78
465.00	219.36
466.00	219.44
467.00	216.00
468.00	216.38
469.00	216.08
470.00	216.11
471.00	216.19
472.00	216.91
473.00	216.47
474.00	216.95
475.00	216.15
476.00	215.84
477.00	215.69
478.00	215.98
479.00	215.64
480.00	216.11
481.00	215.83
482.00	216.29
483.00	216.26
484.00	216.62
485.00	216.51
486.00	217.12
487.00	216.23
488.00	216.69
489.00	216.72
490.00	217.21
491.00	216.82
492.00	217.14
493.00	217.06
494.00	216.32
495.00	215.71
496.00	216.84
497.00	215.51
498.00	215.99
499.00	215.56
500.00	215.82
501.00	215.59
502.00	216.07
503.00	215.68
504.00	216.53
505.00	215.74
506.00	216.49
507.00	216.78
508.00	215.83
509.00	216.16
510.00	215.41
511.00	216.37
512.00	216.05
513.00	215.38
514.00	215.50
515.00	215.52
516.00	215.26
517.00	215.43
518.00	215.51
519.00	216.27
520.00	216.75
521.00	215.68
522.00	216.16
523.00	215.05
524.00	215.17
525.00	216.10
526.00	216.87
527.00	215.36
528.00	215.84
529.00	216.60
530.00	215.15
531.00	214.94
532.00	215.45
533.00	215.08
534.00	214.94
535.00	215.54
536.00	215.20
537.00	215.11
538.00	215.81
539.00	215.68
540.00	216.12
541.00	216.42
542.00	218.95
543.00	219.37
544.00	219.29
545.00	218.36
546.00	218.58
547.00	218.09
548.00	215.96
549.00	215.90
550.00	215.47
551.00	215.79
552.00	215.59
553.00	215.20
554.00	215.38
555.00	215.06
556.00	216.16
557.00	214.72
558.00	215.40
559.00	215.05
560.00	216.63
561.00	215.65
562.00	214.70
563.00	215.25
564.00	214.98
565.00	214.92
566.00	215.32
567.00	216.42
568.00	215.53
569.00	214.63
570.00	218.00
571.00	222.66
572.00	215.50
573.00	217.71
574.00	217.08
575.00	214.91
576.00	215.19
577.00	215.06
578.00	214.81
579.00	215.49
580.00	215.12
581.00	215.14
582.00	215.50
583.00	215.82
584.00	215.77
585.00	215.67
586.00	215.97
587.00	216.02
588.00	215.50
589.00	215.42
590.00	215.27
591.00	215.39
592.00	214.70
593.00	215.48
594.00	215.16
595.00	214.45
596.00	215.05
597.00	215.22
598.00	216.09
599.00	215.96
600.00	214.37
601.00	215.29
602.00	214.57
603.00	215.76
604.00	214.50
605.00	215.49
606.00	214.73
607.00	214.83
608.00	214.21
609.00	214.44
610.00	215.78
611.00	219.11
612.00	219.08
613.00	217.76
614.00	215.77
615.00	215.74
616.00	215.00
617.00	214.96
618.00	217.31
619.00	225.13
620.00	215.39
621.00	216.99
622.00	215.31
623.00	214.97
624.00	214.99
625.00	214.86
626.00	214.53
627.00	214.65
628.00	215.90
629.00	216.41
630.00	214.60
631.00	215.74
632.00	214.99
633.00	215.34
634.00	214.82
635.00	215.52
636.00	215.74
637.00	214.61
638.00	215.19
639.00	214.25
640.00	216.62
641.00	214.72
642.00	214.47
643.00	215.01
644.00	214.82
645.00	214.52
646.00	216.78
647.00	214.65
648.00	214.09
649.00	214.83
650.00	214.06
651.00	214.84
652.00	214.38
653.00	214.22
654.00	215.37
655.00	214.70
656.00	214.87
657.00	215.11
658.00	215.38
659.00	215.07
660.00	214.64
661.00	214.77
662.00	214.00
663.00	214.14
664.00	218.57
665.00	215.06
666.00	214.55
667.00	216.11
668.00	217.00
669.00	214.40
670.00	214.23
671.00	214.17
672.00	214.48
673.00	215.00
674.00	214.14
675.00	214.42
676.00	214.95
677.00	214.94
678.00	214.37
679.00	214.69
680.00	215.26
681.00	216.86
682.00	218.04
683.00	214.63
684.00	219.32
685.00	218.03
686.00	214.51
687.00	214.09
688.00	214.23
689.00	214.73
690.00	214.24
691.00	215.22
692.00	214.54
693.00	214.08
694.00	214.24
695.00	214.01
696.00	214.96
697.00	216.45
698.00	214.92
699.00	215.14
700.00	213.97
701.00	214.15
702.00	214.40
703.00	214.73
704.00	214.97
705.00	214.63
706.00	215.10
707.00	214.72
708.00	213.98
709.00	215.40
710.00	214.47
711.00	213.97
712.00	214.63
713.00	214.11
714.00	214.51
715.00	214.72
716.00	214.30
717.00	214.02
718.00	214.32
719.00	214.46
720.00	215.17
721.00	214.45
722.00	214.25
723.00	215.13
724.00	215.15
725.00	225.19
726.00	213.98
727.00	213.86
728.00	215.21
729.00	214.59
730.00	214.31
731.00	215.16
732.00	214.48
733.00	214.66
734.00	215.57
735.00	214.46
736.00	214.32
737.00	214.38
738.00	214.22
739.00	215.48
740.00	214.21
741.00	213.73
742.00	214.61
743.00	214.55
744.00	213.94
745.00	219.83
746.00	214.08
747.00	214.12
748.00	214.08
749.00	214.65
750.00	214.43
751.00	214.17
752.00	213.83
753.00	214.15
754.00	214.28
755.00	213.99
756.00	214.14
757.00	215.45
758.00	216.00
759.00	216.41
760.00	215.01
761.00	214.23
762.00	215.59
763.00	217.99
764.00	214.20
765.00	214.19
766.00	214.17
767.00	214.77
768.00	214.54
769.00	214.24
770.00	214.13
771.00	214.60
772.00	213.77
773.00	214.15
774.00	214.12
775.00	217.06
776.00	214.44
777.00	213.74
778.00	214.75
779.00	217.16
780.00	214.46
781.00	213.77
782.00	214.71
783.00	214.13
784.00	214.65
785.00	214.51
786.00	214.39
787.00	214.64
788.00	214.50
789.00	216.30
790.00	214.94
791.00	214.33
792.00	214.07
793.00	214.05
794.00	214.33
795.00	214.09
796.00	214.03
797.00	214.17
798.00	215.75
799.00	214.91
800.00	214.62
801.00	214.08
802.00	214.72
803.00	216.27
804.00	213.40
805.00	213.76
806.00	215.44
807.00	214.00
808.00	215.54
809.00	215.45
810.00	215.20
811.00	214.28
812.00	214.79
813.00	214.72
814.00	215.01
815.00	214.34
816.00	214.14
817.00	216.75
818.00	214.27
819.00	215.20
820.00	214.18
821.00	213.94
822.00	215.19
823.00	214.97
824.00	214.12
825.00	219.19
826.00	215.24
827.00	214.46
828.00	213.98
829.00	215.04
830.00	214.59
831.00	214.91
832.00	214.75
833.00	214.38
834.00	214.20
835.00	215.01
836.00	214.30
837.00	214.74
838.00	214.21
839.00	214.01
840.00	214.94
841.00	214.34
842.00	215.41
843.00	215.79
844.00	213.89
845.00	214.29
846.00	214.03
847.00	215.20
848.00	213.99
849.00	214.17
850.00	214.42
851.00	213.77
852.00	214.83
853.00	215.33
854.00	214.76
855.00	214.82
856.00	219.34
857.00	214.75
858.00	216.04
859.00	214.80
860.00	214.09
861.00	216.44
862.00	214.30
863.00	214.02
864.00	216.57
865.00	214.93
866.00	214.00
867.00	214.61
868.00	214.87
869.00	214.56
870.00	214.21
871.00	214.15
872.00	214.98
873.00	214.85
874.00	213.57
875.00	214.13
876.00	214.68
877.00	213.94
878.00	214.23
879.00	214.40
880.00	214.60
881.00	214.21
882.00	214.53
883.00	214.27
884.00	213.98
885.00	214.18
886.00	213.78
887.00	215.07
888.00	213.93
889.00	214.21
890.00	215.12
891.00	216.34
892.00	215.41
893.00	214.57
894.00	213.95
895.00	216.65
896.00	213.90
897.00	213.29
898.00	213.77
899.00	213.65
900.00	215.10
901.00	214.18
902.00	213.97
903.00	217.31
904.00	213.91
905.00	214.01
906.00	216.72
907.00	214.58
908.00	214.48
909.00	213.44
910.00	213.82
911.00	214.12
912.00	214.42
913.00	214.19
914.00	214.95
915.00	214.11
916.00	214.65
917.00	215.03
918.00	214.57
919.00	215.07
920.00	214.74
921.00	215.71
922.00	214.31
923.00	214.88
924.00	214.22
925.00	215.14
926.00	214.45
927.00	214.87
928.00	213.77
929.00	214.53
930.00	214.24
931.00	213.54
932.00	214.21
933.00	214.46
934.00	214.10
935.00	213.56
936.00	213.87
937.00	213.67
938.00	215.35
939.00	214.79
940.00	214.04
941.00	215.09
942.00	215.91
943.00	215.17
944.00	214.38
945.00	217.33
946.00	214.25
947.00	214.57
948.00	213.84
949.00	214.22
950.00	214.78
951.00	214.67
952.00	213.89
953.00	214.09
954.00	213.71
955.00	215.35
956.00	214.45
957.00	214.67
958.00	214.63
959.00	214.40
960.00	214.36
961.00	214.17
962.00	214.32
963.00	214.21
964.00	214.43
965.00	213.91
966.00	213.69
967.00	215.00
968.00	214.68
969.00	214.40
970.00	214.16
971.00	215.12
972.00	214.57
973.00	216.39
974.00	215.38
975.00	214.62
976.00	215.65
977.00	214.16
978.00	214.74
979.00	214.88
980.00	214.07
981.00	214.08
982.00	214.88
983.00	216.27
984.00	214.43
985.00	215.49
986.00	214.48
987.00	214.79
988.00	215.54
989.00	214.39
990.00	213.79
991.00	214.86
992.00	214.22
993.00	214.93
994.00	214.50
995.00	214.66
996.00	214.62
997.00	214.61
998.00	214.39
999.00	215.10
1000.00	214.15
>>>>>End Processed Spectral Data<<<<<
