SpectraSuite Data File
++++++++++++++++++++++++++++++++++++
Date: Fri Jan 27 16:48:49 CST 2012
User: Helimak
Dark Spectrum Present: No
Reference Spectrum Present: No
Number of Sampled Component Spectra: 1
Spectrometers: USB2G37154
Integration Time (usec): 150000 (USB2G37154)
Spectra Averaged: 200 (USB2G37154)
Boxcar Smoothing: 0 (USB2G37154)
Correct for Electrical Dark: No (USB2G37154)
Strobe/Lamp Enabled: No (USB2G37154)
Correct for Detector Non-linearity: No (USB2G37154)
Correct for Stray Light: No (USB2G37154)
Number of Pixels in Processed Spectrum: 651
>>>>>Begin Processed Spectral Data<<<<<
350.00	212.65
351.00	213.18
352.00	212.55
353.00	212.80
354.00	213.22
355.00	214.00
356.00	213.92
357.00	212.88
358.00	214.90
359.00	213.31
360.00	213.82
361.00	213.44
362.00	215.44
363.00	213.50
364.00	215.51
365.00	214.28
366.00	213.87
367.00	213.89
368.00	214.10
369.00	214.24
370.00	214.79
371.00	213.78
372.00	214.78
373.00	214.94
374.00	215.61
375.00	217.38
376.00	214.62
377.00	215.23
378.00	217.00
379.00	214.99
380.00	214.87
381.00	215.24
382.00	215.59
383.00	216.76
384.00	215.23
385.00	215.88
386.00	215.39
387.00	215.60
388.00	214.82
389.00	215.35
390.00	215.48
391.00	215.87
392.00	215.55
393.00	215.59
394.00	216.47
395.00	215.77
396.00	215.77
397.00	215.97
398.00	216.07
399.00	216.60
400.00	215.96
401.00	215.46
402.00	216.24
403.00	216.21
404.00	216.54
405.00	216.87
406.00	215.98
407.00	216.13
408.00	216.21
409.00	216.10
410.00	215.84
411.00	215.74
412.00	216.15
413.00	216.62
414.00	216.11
415.00	216.65
416.00	216.78
417.00	216.78
418.00	216.58
419.00	216.44
420.00	216.51
421.00	216.35
422.00	216.75
423.00	216.46
424.00	216.18
425.00	216.64
426.00	216.41
427.00	219.23
428.00	216.13
429.00	216.22
430.00	216.28
431.00	215.95
432.00	219.39
433.00	217.49
434.00	216.87
435.00	217.77
436.00	218.05
437.00	220.92
438.00	216.61
439.00	216.35
440.00	216.58
441.00	217.19
442.00	216.22
443.00	216.41
444.00	216.08
445.00	216.51
446.00	216.77
447.00	216.71
448.00	216.57
449.00	216.47
450.00	215.97
451.00	217.11
452.00	215.83
453.00	216.71
454.00	216.39
455.00	216.76
456.00	216.43
457.00	216.35
458.00	216.41
459.00	216.17
460.00	216.74
461.00	216.03
462.00	216.39
463.00	216.64
464.00	216.82
465.00	219.65
466.00	219.39
467.00	215.93
468.00	216.48
469.00	216.17
470.00	216.06
471.00	216.01
472.00	216.44
473.00	216.41
474.00	216.87
475.00	216.08
476.00	215.63
477.00	215.80
478.00	215.62
479.00	215.62
480.00	216.52
481.00	215.91
482.00	216.06
483.00	216.28
484.00	216.45
485.00	216.33
486.00	216.94
487.00	216.27
488.00	216.67
489.00	216.23
490.00	217.31
491.00	216.13
492.00	216.96
493.00	216.48
494.00	216.55
495.00	215.87
496.00	216.94
497.00	215.95
498.00	215.79
499.00	215.90
500.00	215.81
501.00	215.45
502.00	215.61
503.00	215.58
504.00	216.45
505.00	215.45
506.00	216.22
507.00	216.55
508.00	215.94
509.00	215.68
510.00	215.81
511.00	216.39
512.00	216.12
513.00	215.78
514.00	215.17
515.00	215.99
516.00	215.09
517.00	215.62
518.00	215.71
519.00	216.49
520.00	216.40
521.00	215.44
522.00	216.30
523.00	214.87
524.00	214.66
525.00	216.07
526.00	216.74
527.00	215.26
528.00	215.74
529.00	216.72
530.00	214.70
531.00	214.83
532.00	215.17
533.00	214.85
534.00	215.22
535.00	215.17
536.00	215.01
537.00	215.42
538.00	215.76
539.00	215.65
540.00	216.16
541.00	216.42
542.00	218.73
543.00	219.50
544.00	218.90
545.00	218.18
546.00	218.64
547.00	218.00
548.00	215.66
549.00	215.59
550.00	215.76
551.00	215.94
552.00	215.16
553.00	215.54
554.00	215.70
555.00	215.03
556.00	215.76
557.00	214.86
558.00	215.30
559.00	215.07
560.00	216.58
561.00	215.63
562.00	214.83
563.00	214.93
564.00	214.89
565.00	215.17
566.00	215.26
567.00	216.06
568.00	215.18
569.00	214.67
570.00	218.07
571.00	222.41
572.00	215.50
573.00	217.35
574.00	216.80
575.00	214.92
576.00	214.83
577.00	215.06
578.00	214.72
579.00	215.36
580.00	215.12
581.00	215.12
582.00	215.55
583.00	215.85
584.00	215.73
585.00	215.47
586.00	215.90
587.00	215.93
588.00	216.29
589.00	215.44
590.00	215.25
591.00	215.34
592.00	214.77
593.00	215.63
594.00	215.62
595.00	214.08
596.00	215.19
597.00	215.17
598.00	215.94
599.00	215.95
600.00	214.83
601.00	215.08
602.00	214.53
603.00	215.39
604.00	214.41
605.00	215.40
606.00	214.67
607.00	215.00
608.00	214.63
609.00	214.64
610.00	215.29
611.00	218.92
612.00	218.32
613.00	217.67
614.00	215.65
615.00	215.65
616.00	215.11
617.00	214.84
618.00	217.01
619.00	225.08
620.00	215.61
621.00	216.87
622.00	215.33
623.00	214.93
624.00	214.42
625.00	214.69
626.00	214.89
627.00	214.38
628.00	215.86
629.00	216.65
630.00	214.69
631.00	215.91
632.00	214.91
633.00	215.19
634.00	214.87
635.00	215.24
636.00	215.72
637.00	214.48
638.00	214.92
639.00	214.67
640.00	216.76
641.00	214.50
642.00	214.61
643.00	214.95
644.00	214.78
645.00	214.63
646.00	216.72
647.00	214.54
648.00	214.19
649.00	214.83
650.00	214.35
651.00	214.62
652.00	214.61
653.00	214.44
654.00	215.70
655.00	214.87
656.00	215.19
657.00	215.12
658.00	215.15
659.00	215.08
660.00	214.98
661.00	214.58
662.00	214.19
663.00	214.12
664.00	219.03
665.00	215.15
666.00	214.69
667.00	216.25
668.00	216.99
669.00	214.41
670.00	214.06
671.00	214.07
672.00	214.40
673.00	215.15
674.00	214.06
675.00	214.59
676.00	215.07
677.00	215.05
678.00	214.59
679.00	214.31
680.00	215.30
681.00	217.02
682.00	217.89
683.00	214.72
684.00	219.20
685.00	218.26
686.00	214.32
687.00	214.70
688.00	214.22
689.00	214.70
690.00	214.32
691.00	215.14
692.00	214.38
693.00	214.11
694.00	214.00
695.00	214.11
696.00	215.19
697.00	216.52
698.00	214.86
699.00	214.85
700.00	214.49
701.00	214.34
702.00	214.10
703.00	214.58
704.00	215.09
705.00	214.72
706.00	214.84
707.00	214.58
708.00	214.22
709.00	215.20
710.00	214.42
711.00	213.88
712.00	214.46
713.00	214.12
714.00	214.78
715.00	214.64
716.00	214.05
717.00	213.90
718.00	214.41
719.00	214.21
720.00	214.73
721.00	214.61
722.00	214.30
723.00	214.81
724.00	215.08
725.00	224.87
726.00	213.67
727.00	214.14
728.00	215.31
729.00	214.39
730.00	214.18
731.00	215.38
732.00	214.55
733.00	214.69
734.00	215.28
735.00	214.63
736.00	213.81
737.00	214.47
738.00	214.38
739.00	215.14
740.00	214.36
741.00	213.88
742.00	214.68
743.00	214.56
744.00	213.95
745.00	219.79
746.00	213.71
747.00	213.82
748.00	214.00
749.00	214.59
750.00	214.39
751.00	214.52
752.00	213.70
753.00	214.21
754.00	214.22
755.00	214.72
756.00	214.41
757.00	215.18
758.00	216.10
759.00	216.43
760.00	215.17
761.00	214.16
762.00	215.80
763.00	218.01
764.00	214.34
765.00	214.46
766.00	214.04
767.00	214.54
768.00	214.74
769.00	214.33
770.00	213.98
771.00	214.34
772.00	214.28
773.00	214.36
774.00	214.02
775.00	217.10
776.00	214.06
777.00	213.90
778.00	214.24
779.00	216.90
780.00	214.56
781.00	213.70
782.00	214.49
783.00	214.29
784.00	214.00
785.00	214.38
786.00	214.36
787.00	215.22
788.00	214.70
789.00	216.10
790.00	214.31
791.00	214.46
792.00	213.82
793.00	213.46
794.00	213.92
795.00	214.09
796.00	213.56
797.00	214.12
798.00	215.60
799.00	214.35
800.00	214.81
801.00	214.07
802.00	214.52
803.00	216.31
804.00	213.47
805.00	213.28
806.00	215.30
807.00	213.91
808.00	215.44
809.00	215.24
810.00	214.99
811.00	214.32
812.00	214.50
813.00	214.99
814.00	214.99
815.00	214.62
816.00	213.89
817.00	216.75
818.00	214.07
819.00	215.36
820.00	214.66
821.00	213.77
822.00	215.33
823.00	214.97
824.00	213.83
825.00	219.04
826.00	215.69
827.00	214.61
828.00	214.18
829.00	214.87
830.00	214.22
831.00	214.85
832.00	214.35
833.00	214.79
834.00	213.92
835.00	215.29
836.00	214.29
837.00	214.49
838.00	214.16
839.00	213.74
840.00	214.55
841.00	214.37
842.00	215.15
843.00	215.53
844.00	214.18
845.00	214.44
846.00	214.03
847.00	214.92
848.00	213.79
849.00	213.93
850.00	214.30
851.00	213.92
852.00	215.00
853.00	215.13
854.00	214.46
855.00	214.67
856.00	219.34
857.00	214.63
858.00	215.92
859.00	214.63
860.00	213.90
861.00	216.31
862.00	214.24
863.00	213.73
864.00	216.36
865.00	214.67
866.00	214.31
867.00	214.51
868.00	214.86
869.00	214.71
870.00	214.22
871.00	214.60
872.00	214.96
873.00	214.62
874.00	213.76
875.00	214.13
876.00	214.66
877.00	213.95
878.00	214.23
879.00	214.32
880.00	214.09
881.00	214.45
882.00	214.33
883.00	213.96
884.00	213.94
885.00	214.53
886.00	213.94
887.00	215.10
888.00	214.00
889.00	214.39
890.00	215.11
891.00	216.24
892.00	214.98
893.00	214.13
894.00	213.93
895.00	216.65
896.00	213.91
897.00	213.51
898.00	214.21
899.00	213.85
900.00	214.88
901.00	214.41
902.00	213.99
903.00	217.50
904.00	214.01
905.00	214.03
906.00	216.32
907.00	215.06
908.00	213.86
909.00	213.62
910.00	213.98
911.00	214.18
912.00	214.70
913.00	214.26
914.00	214.86
915.00	214.29
916.00	214.81
917.00	214.69
918.00	214.69
919.00	215.43
920.00	214.39
921.00	215.43
922.00	214.34
923.00	214.98
924.00	214.41
925.00	215.17
926.00	214.13
927.00	214.58
928.00	213.65
929.00	214.49
930.00	214.49
931.00	213.63
932.00	213.96
933.00	214.42
934.00	213.89
935.00	213.79
936.00	213.89
937.00	213.85
938.00	215.03
939.00	215.05
940.00	214.41
941.00	214.79
942.00	215.95
943.00	214.74
944.00	214.08
945.00	217.18
946.00	214.01
947.00	214.78
948.00	213.88
949.00	214.28
950.00	214.69
951.00	214.73
952.00	214.16
953.00	214.49
954.00	213.54
955.00	215.43
956.00	214.44
957.00	214.64
958.00	214.73
959.00	214.24
960.00	214.32
961.00	214.12
962.00	214.31
963.00	213.96
964.00	214.34
965.00	213.75
966.00	213.65
967.00	215.06
968.00	215.03
969.00	214.21
970.00	214.14
971.00	215.23
972.00	214.42
973.00	216.11
974.00	215.39
975.00	214.10
976.00	215.49
977.00	213.82
978.00	214.71
979.00	214.63
980.00	213.84
981.00	213.82
982.00	215.14
983.00	216.09
984.00	214.27
985.00	215.46
986.00	214.19
987.00	214.63
988.00	215.73
989.00	214.83
990.00	213.99
991.00	215.17
992.00	214.23
993.00	214.82
994.00	214.79
995.00	214.20
996.00	214.26
997.00	215.21
998.00	214.20
999.00	214.87
1000.00	214.13
>>>>>End Processed Spectral Data<<<<<
