SpectraSuite Data File
++++++++++++++++++++++++++++++++++++
Date: Sun May 20 11:31:30 CDT 2012
User: Helimak
Dark Spectrum Present: No
Reference Spectrum Present: No
Number of Sampled Component Spectra: 1
Spectrometers: USB2G37154
Integration Time (usec): 100000 (USB2G37154)
Spectra Averaged: 1 (USB2G37154)
Boxcar Smoothing: 0 (USB2G37154)
Correct for Electrical Dark: No (USB2G37154)
Strobe/Lamp Enabled: No (USB2G37154)
Correct for Detector Non-linearity: No (USB2G37154)
Correct for Stray Light: No (USB2G37154)
Number of Pixels in Processed Spectrum: 651
>>>>>Begin Processed Spectral Data<<<<<
350.00	209.13
351.00	207.27
352.00	210.28
353.00	207.94
354.00	213.18
355.00	213.11
356.00	214.08
357.00	216.03
358.00	213.14
359.00	209.94
360.00	212.68
361.00	212.02
362.00	212.11
363.00	212.96
364.00	212.15
365.00	209.86
366.00	212.61
367.00	213.85
368.00	213.05
369.00	214.63
370.00	213.05
371.00	210.89
372.00	216.11
373.00	208.76
374.00	212.64
375.00	216.87
376.00	209.83
377.00	208.59
378.00	213.59
379.00	213.74
380.00	210.02
381.00	217.18
382.00	213.75
383.00	215.01
384.00	212.17
385.00	217.37
386.00	209.95
387.00	213.15
388.00	214.82
389.00	217.55
390.00	216.13
391.00	213.47
392.00	217.53
393.00	212.94
394.00	212.86
395.00	216.00
396.00	215.07
397.00	215.33
398.00	214.53
399.00	221.52
400.00	215.74
401.00	214.89
402.00	216.67
403.00	283.68
404.00	287.54
405.00	278.09
406.00	222.00
407.00	228.88
408.00	231.02
409.00	222.59
410.00	228.58
411.00	227.36
412.00	235.00
413.00	233.26
414.00	239.07
415.00	243.61
416.00	250.41
417.00	249.49
418.00	253.53
419.00	262.19
420.00	264.12
421.00	268.21
422.00	277.60
423.00	284.92
424.00	296.32
425.00	307.17
426.00	310.54
427.00	336.23
428.00	341.57
429.00	357.01
430.00	358.95
431.00	376.79
432.00	390.24
433.00	405.21
434.00	519.10
435.00	1619.92
436.00	1276.01
437.00	1031.30
438.00	448.93
439.00	443.52
440.00	437.49
441.00	438.96
442.00	438.34
443.00	440.70
444.00	445.99
445.00	451.05
446.00	460.22
447.00	467.88
448.00	475.96
449.00	492.12
450.00	497.88
451.00	511.32
452.00	517.60
453.00	535.55
454.00	532.01
455.00	539.29
456.00	539.76
457.00	540.28
458.00	538.47
459.00	543.59
460.00	538.61
461.00	530.05
462.00	532.46
463.00	511.25
464.00	503.72
465.00	492.50
466.00	480.00
467.00	476.10
468.00	466.94
469.00	451.50
470.00	449.69
471.00	443.21
472.00	441.72
473.00	436.27
474.00	432.21
475.00	425.34
476.00	426.07
477.00	432.76
478.00	421.75
479.00	432.50
480.00	436.40
481.00	440.41
482.00	462.16
483.00	502.81
484.00	578.73
485.00	654.32
486.00	753.75
487.00	774.11
488.00	763.75
489.00	719.47
490.00	672.71
491.00	668.18
492.00	634.83
493.00	592.46
494.00	564.67
495.00	542.83
496.00	519.48
497.00	493.70
498.00	471.64
499.00	446.07
500.00	418.00
501.00	403.68
502.00	393.02
503.00	384.53
504.00	370.85
505.00	365.64
506.00	367.75
507.00	365.70
508.00	356.06
509.00	361.16
510.00	364.06
511.00	365.01
512.00	367.65
513.00	367.70
514.00	370.42
515.00	364.17
516.00	357.13
517.00	359.20
518.00	354.75
519.00	347.95
520.00	344.19
521.00	337.09
522.00	334.84
523.00	335.48
524.00	329.44
525.00	325.00
526.00	322.49
527.00	320.00
528.00	311.58
529.00	312.61
530.00	314.51
531.00	308.82
532.00	316.83
533.00	330.04
534.00	328.75
535.00	330.86
536.00	353.60
537.00	419.17
538.00	522.73
539.00	652.79
540.00	964.55
541.00	1788.02
542.00	2342.90
543.00	2103.51
544.00	1888.80
545.00	2103.00
546.00	3306.66
547.00	2409.44
548.00	1474.00
549.00	1111.12
550.00	894.91
551.00	711.56
552.00	583.84
553.00	487.43
554.00	407.61
555.00	357.15
556.00	323.84
557.00	302.93
558.00	281.51
559.00	273.26
560.00	269.30
561.00	260.12
562.00	261.08
563.00	249.28
564.00	243.89
565.00	249.57
566.00	245.32
567.00	246.49
568.00	241.12
569.00	243.96
570.00	241.14
571.00	241.01
572.00	236.87
573.00	238.56
574.00	235.99
575.00	243.55
576.00	292.40
577.00	534.25
578.00	433.98
579.00	530.10
580.00	484.86
581.00	412.36
582.00	424.60
583.00	506.09
584.00	548.47
585.00	530.08
586.00	490.33
587.00	557.12
588.00	569.46
589.00	455.32
590.00	379.98
591.00	375.78
592.00	405.32
593.00	468.26
594.00	442.88
595.00	362.83
596.00	314.12
597.00	302.00
598.00	305.32
599.00	345.19
600.00	363.03
601.00	334.65
602.00	292.26
603.00	272.94
604.00	272.71
605.00	273.51
606.00	281.05
607.00	290.59
608.00	311.92
609.00	383.33
610.00	583.55
611.00	1588.02
612.00	2124.33
613.00	1386.53
614.00	907.47
615.00	758.50
616.00	583.88
617.00	449.25
618.00	393.33
619.00	363.97
620.00	371.04
621.00	386.41
622.00	394.77
623.00	395.26
624.00	403.54
625.00	409.18
626.00	403.15
627.00	397.98
628.00	387.30
629.00	355.86
630.00	365.63
631.00	439.50
632.00	427.67
633.00	319.44
634.00	266.74
635.00	248.92
636.00	244.50
637.00	238.31
638.00	240.56
639.00	233.85
640.00	237.89
641.00	239.84
642.00	234.19
643.00	232.62
644.00	235.55
645.00	234.24
646.00	238.05
647.00	237.47
648.00	242.47
649.00	235.42
650.00	252.70
651.00	282.40
652.00	264.75
653.00	245.53
654.00	248.51
655.00	240.78
656.00	239.05
657.00	236.10
658.00	234.00
659.00	236.18
660.00	230.85
661.00	226.44
662.00	236.43
663.00	245.83
664.00	247.22
665.00	229.10
666.00	229.20
667.00	226.67
668.00	232.89
669.00	225.94
670.00	227.41
671.00	224.14
672.00	226.89
673.00	230.00
674.00	221.95
675.00	223.06
676.00	225.50
677.00	221.83
678.00	218.71
679.00	223.53
680.00	226.97
681.00	230.11
682.00	232.11
683.00	227.25
684.00	225.26
685.00	227.75
686.00	224.05
687.00	228.47
688.00	236.88
689.00	237.81
690.00	224.43
691.00	226.84
692.00	217.43
693.00	219.11
694.00	228.31
695.00	228.95
696.00	221.00
697.00	224.96
698.00	219.76
699.00	214.05
700.00	210.52
701.00	218.01
702.00	215.88
703.00	219.77
704.00	220.71
705.00	218.14
706.00	231.16
707.00	258.17
708.00	277.27
709.00	275.23
710.00	280.16
711.00	244.99
712.00	242.15
713.00	266.34
714.00	250.54
715.00	229.31
716.00	215.94
717.00	212.00
718.00	216.10
719.00	215.99
720.00	212.50
721.00	212.04
722.00	212.93
723.00	212.95
724.00	212.91
725.00	220.41
726.00	208.53
727.00	211.84
728.00	211.49
729.00	209.82
730.00	209.61
731.00	209.14
732.00	213.43
733.00	212.02
734.00	212.02
735.00	212.09
736.00	213.23
737.00	212.32
738.00	211.33
739.00	220.81
740.00	216.78
741.00	215.84
742.00	206.94
743.00	214.00
744.00	214.92
745.00	216.74
746.00	207.59
747.00	209.41
748.00	210.76
749.00	212.70
750.00	211.64
751.00	216.54
752.00	221.22
753.00	217.54
754.00	210.30
755.00	212.73
756.00	213.06
757.00	213.49
758.00	210.68
759.00	213.42
760.00	217.17
761.00	210.31
762.00	210.58
763.00	218.23
764.00	230.91
765.00	233.68
766.00	218.16
767.00	210.06
768.00	211.46
769.00	211.15
770.00	211.63
771.00	208.80
772.00	212.90
773.00	219.67
774.00	214.24
775.00	220.98
776.00	212.53
777.00	211.98
778.00	209.02
779.00	213.60
780.00	211.74
781.00	207.60
782.00	212.97
783.00	211.70
784.00	210.09
785.00	207.92
786.00	211.61
787.00	209.94
788.00	210.09
789.00	212.01
790.00	213.22
791.00	209.38
792.00	206.11
793.00	209.00
794.00	210.94
795.00	213.80
796.00	219.78
797.00	215.84
798.00	212.20
799.00	212.14
800.00	214.17
801.00	215.55
802.00	227.43
803.00	221.20
804.00	214.72
805.00	214.48
806.00	214.48
807.00	210.86
808.00	212.61
809.00	211.88
810.00	217.11
811.00	222.40
812.00	243.13
813.00	251.21
814.00	228.38
815.00	215.97
816.00	212.40
817.00	218.00
818.00	205.61
819.00	212.00
820.00	212.78
821.00	210.06
822.00	212.15
823.00	212.07
824.00	208.56
825.00	214.79
826.00	211.56
827.00	212.85
828.00	216.59
829.00	210.92
830.00	209.85
831.00	213.01
832.00	212.00
833.00	208.32
834.00	206.98
835.00	212.10
836.00	208.44
837.00	208.52
838.00	214.09
839.00	210.00
840.00	209.20
841.00	212.43
842.00	220.73
843.00	227.68
844.00	219.35
845.00	216.00
846.00	217.08
847.00	207.84
848.00	212.87
849.00	209.88
850.00	209.15
851.00	208.93
852.00	206.64
853.00	213.65
854.00	213.14
855.00	209.35
856.00	214.79
857.00	209.47
858.00	211.39
859.00	206.15
860.00	213.11
861.00	213.44
862.00	209.84
863.00	208.31
864.00	209.93
865.00	210.43
866.00	209.24
867.00	211.73
868.00	214.01
869.00	209.86
870.00	211.57
871.00	210.54
872.00	212.89
873.00	213.86
874.00	211.97
875.00	207.72
876.00	208.45
877.00	207.86
878.00	206.03
879.00	212.51
880.00	205.29
881.00	209.97
882.00	210.77
883.00	209.36
884.00	212.00
885.00	211.97
886.00	210.72
887.00	207.79
888.00	213.01
889.00	208.30
890.00	211.60
891.00	207.12
892.00	208.51
893.00	207.60
894.00	209.27
895.00	212.73
896.00	210.01
897.00	211.40
898.00	208.33
899.00	209.21
900.00	212.68
901.00	209.98
902.00	208.53
903.00	213.55
904.00	212.17
905.00	210.96
906.00	207.99
907.00	210.97
908.00	211.40
909.00	206.57
910.00	213.85
911.00	210.71
912.00	211.86
913.00	215.11
914.00	219.63
915.00	214.04
916.00	209.16
917.00	210.22
918.00	208.69
919.00	210.00
920.00	209.98
921.00	210.17
922.00	207.67
923.00	210.94
924.00	211.46
925.00	208.98
926.00	208.99
927.00	209.18
928.00	208.73
929.00	202.23
930.00	207.95
931.00	209.63
932.00	212.24
933.00	209.04
934.00	211.07
935.00	210.31
936.00	211.88
937.00	205.96
938.00	211.07
939.00	210.90
940.00	207.44
941.00	208.28
942.00	210.98
943.00	210.70
944.00	208.53
945.00	211.49
946.00	209.34
947.00	210.99
948.00	209.01
949.00	207.87
950.00	209.79
951.00	211.71
952.00	204.04
953.00	209.62
954.00	210.35
955.00	209.38
956.00	210.40
957.00	211.05
958.00	213.59
959.00	213.97
960.00	210.10
961.00	211.92
962.00	206.17
963.00	209.90
964.00	207.59
965.00	209.35
966.00	210.70
967.00	211.39
968.00	210.01
969.00	212.42
970.00	212.99
971.00	211.28
972.00	212.83
973.00	214.09
974.00	209.12
975.00	210.20
976.00	213.34
977.00	208.08
978.00	209.73
979.00	211.70
980.00	209.45
981.00	213.01
982.00	212.78
983.00	210.68
984.00	209.58
985.00	212.19
986.00	210.67
987.00	211.69
988.00	211.84
989.00	209.38
990.00	209.28
991.00	210.91
992.00	213.69
993.00	210.75
994.00	204.03
995.00	207.65
996.00	210.19
997.00	211.36
998.00	209.80
999.00	208.52
1000.00	211.95
>>>>>End Processed Spectral Data<<<<<
