SpectraSuite Data File
++++++++++++++++++++++++++++++++++++
Date: Thu Oct 13 11:31:38 CDT 2011
User: Helimak
Dark Spectrum Present: No
Reference Spectrum Present: No
Number of Sampled Component Spectra: 1
Spectrometers: USB2G37154
Integration Time (usec): 20000 (USB2G37154)
Spectra Averaged: 1 (USB2G37154)
Boxcar Smoothing: 0 (USB2G37154)
Correct for Electrical Dark: No (USB2G37154)
Strobe/Lamp Enabled: No (USB2G37154)
Correct for Detector Non-linearity: No (USB2G37154)
Correct for Stray Light: No (USB2G37154)
Number of Pixels in Processed Spectrum: 651
>>>>>Begin Processed Spectral Data<<<<<
350.00	204.34
351.00	201.67
352.00	203.23
353.00	204.33
354.00	203.55
355.00	205.54
356.00	202.49
357.00	205.68
358.00	199.15
359.00	203.43
360.00	209.09
361.00	203.99
362.00	203.31
363.00	206.91
364.00	201.35
365.00	206.19
366.00	205.39
367.00	208.10
368.00	207.41
369.00	204.31
370.00	202.96
371.00	207.45
372.00	208.27
373.00	205.99
374.00	206.93
375.00	205.89
376.00	207.68
377.00	205.96
378.00	203.96
379.00	210.97
380.00	207.19
381.00	207.87
382.00	206.48
383.00	207.91
384.00	208.10
385.00	210.92
386.00	207.00
387.00	208.21
388.00	209.31
389.00	212.56
390.00	208.60
391.00	214.33
392.00	213.29
393.00	211.79
394.00	213.38
395.00	216.30
396.00	217.91
397.00	213.46
398.00	213.30
399.00	215.96
400.00	216.12
401.00	217.02
402.00	216.93
403.00	218.78
404.00	218.14
405.00	218.32
406.00	218.00
407.00	223.03
408.00	218.02
409.00	221.82
410.00	220.55
411.00	222.18
412.00	219.95
413.00	221.75
414.00	225.55
415.00	224.17
416.00	224.21
417.00	225.04
418.00	224.67
419.00	225.12
420.00	223.87
421.00	230.71
422.00	230.55
423.00	228.93
424.00	234.62
425.00	233.59
426.00	236.11
427.00	237.94
428.00	237.06
429.00	238.36
430.00	239.71
431.00	243.55
432.00	246.75
433.00	240.97
434.00	244.09
435.00	244.12
436.00	239.69
437.00	244.40
438.00	246.90
439.00	239.29
440.00	244.85
441.00	243.14
442.00	249.74
443.00	244.33
444.00	244.76
445.00	248.78
446.00	247.31
447.00	254.80
448.00	248.65
449.00	255.94
450.00	258.28
451.00	256.92
452.00	263.86
453.00	266.25
454.00	265.12
455.00	265.16
456.00	275.68
457.00	273.72
458.00	277.89
459.00	284.95
460.00	280.02
461.00	283.25
462.00	278.82
463.00	276.68
464.00	276.27
465.00	279.41
466.00	283.64
467.00	278.97
468.00	281.44
469.00	283.47
470.00	279.78
471.00	282.32
472.00	282.40
473.00	287.39
474.00	283.89
475.00	290.21
476.00	299.37
477.00	295.29
478.00	293.49
479.00	295.64
480.00	309.40
481.00	303.99
482.00	315.29
483.00	316.18
484.00	327.83
485.00	326.86
486.00	336.99
487.00	343.76
488.00	348.54
489.00	358.07
490.00	348.66
491.00	360.57
492.00	367.15
493.00	368.59
494.00	370.80
495.00	366.18
496.00	371.12
497.00	378.66
498.00	387.63
499.00	385.98
500.00	381.59
501.00	385.19
502.00	383.01
503.00	385.45
504.00	376.08
505.00	373.53
506.00	395.24
507.00	385.62
508.00	382.53
509.00	380.34
510.00	390.90
511.00	382.00
512.00	386.23
513.00	395.12
514.00	391.96
515.00	388.53
516.00	406.72
517.00	401.34
518.00	407.16
519.00	406.96
520.00	420.44
521.00	418.93
522.00	419.83
523.00	427.99
524.00	429.24
525.00	440.99
526.00	438.02
527.00	450.11
528.00	445.99
529.00	458.56
530.00	460.30
531.00	459.11
532.00	472.29
533.00	474.43
534.00	483.33
535.00	471.18
536.00	491.49
537.00	492.92
538.00	494.56
539.00	494.62
540.00	492.22
541.00	503.21
542.00	501.09
543.00	505.25
544.00	498.31
545.00	497.55
546.00	502.23
547.00	502.83
548.00	493.54
549.00	494.28
550.00	497.61
551.00	497.06
552.00	488.40
553.00	492.69
554.00	496.12
555.00	501.19
556.00	486.36
557.00	493.35
558.00	496.57
559.00	498.26
560.00	498.58
561.00	504.07
562.00	506.66
563.00	508.69
564.00	504.65
565.00	511.70
566.00	521.53
567.00	519.28
568.00	519.99
569.00	522.00
570.00	530.52
571.00	530.54
572.00	530.90
573.00	544.49
574.00	553.73
575.00	549.14
576.00	554.51
577.00	559.15
578.00	567.22
579.00	571.80
580.00	573.41
581.00	578.59
582.00	567.00
583.00	578.81
584.00	583.35
585.00	571.24
586.00	588.45
587.00	578.91
588.00	587.93
589.00	585.87
590.00	578.11
591.00	577.90
592.00	582.97
593.00	581.65
594.00	575.03
595.00	573.28
596.00	569.87
597.00	574.48
598.00	571.01
599.00	579.07
600.00	579.77
601.00	575.16
602.00	566.07
603.00	571.37
604.00	567.45
605.00	569.90
606.00	577.51
607.00	574.48
608.00	572.49
609.00	573.84
610.00	568.83
611.00	573.79
612.00	571.30
613.00	582.90
614.00	574.43
615.00	574.73
616.00	578.13
617.00	577.98
618.00	585.78
619.00	590.80
620.00	587.93
621.00	589.69
622.00	590.46
623.00	590.48
624.00	603.97
625.00	608.04
626.00	600.13
627.00	604.74
628.00	610.11
629.00	614.09
630.00	609.18
631.00	621.51
632.00	624.26
633.00	621.86
634.00	610.34
635.00	627.99
636.00	633.54
637.00	621.88
638.00	630.93
639.00	621.78
640.00	627.97
641.00	620.01
642.00	625.89
643.00	620.96
644.00	633.46
645.00	612.66
646.00	621.13
647.00	613.52
648.00	612.09
649.00	606.88
650.00	602.54
651.00	604.63
652.00	594.95
653.00	598.99
654.00	596.16
655.00	587.56
656.00	583.92
657.00	589.10
658.00	598.00
659.00	585.53
660.00	579.37
661.00	581.62
662.00	573.73
663.00	580.11
664.00	569.50
665.00	573.50
666.00	573.65
667.00	572.32
668.00	561.29
669.00	560.65
670.00	563.51
671.00	560.19
672.00	565.76
673.00	569.99
674.00	568.85
675.00	560.62
676.00	557.46
677.00	568.27
678.00	565.61
679.00	566.48
680.00	573.37
681.00	564.16
682.00	576.46
683.00	559.88
684.00	577.63
685.00	576.94
686.00	567.58
687.00	569.40
688.00	580.11
689.00	572.88
690.00	568.06
691.00	572.43
692.00	577.79
693.00	576.37
694.00	583.83
695.00	588.10
696.00	579.00
697.00	579.20
698.00	586.80
699.00	576.73
700.00	589.38
701.00	595.40
702.00	583.50
703.00	579.69
704.00	584.56
705.00	590.05
706.00	591.18
707.00	584.05
708.00	591.54
709.00	591.88
710.00	594.88
711.00	580.94
712.00	583.94
713.00	584.30
714.00	579.77
715.00	576.73
716.00	575.51
717.00	579.30
718.00	562.76
719.00	564.59
720.00	564.27
721.00	560.38
722.00	551.58
723.00	555.37
724.00	544.28
725.00	543.75
726.00	541.36
727.00	530.56
728.00	532.97
729.00	537.48
730.00	537.14
731.00	531.95
732.00	526.72
733.00	527.91
734.00	527.40
735.00	520.99
736.00	516.40
737.00	524.27
738.00	530.51
739.00	521.16
740.00	512.43
741.00	520.47
742.00	514.03
743.00	518.00
744.00	516.20
745.00	516.70
746.00	514.71
747.00	513.92
748.00	499.63
749.00	498.20
750.00	504.22
751.00	509.59
752.00	511.30
753.00	505.22
754.00	499.28
755.00	503.82
756.00	506.08
757.00	504.65
758.00	513.81
759.00	511.68
760.00	516.04
761.00	507.33
762.00	502.00
763.00	507.65
764.00	502.07
765.00	498.73
766.00	508.22
767.00	505.91
768.00	507.33
769.00	514.29
770.00	512.17
771.00	509.25
772.00	510.35
773.00	520.05
774.00	507.37
775.00	504.69
776.00	497.53
777.00	521.66
778.00	514.01
779.00	516.84
780.00	499.82
781.00	508.63
782.00	511.44
783.00	516.69
784.00	522.70
785.00	521.59
786.00	531.96
787.00	534.69
788.00	539.04
789.00	532.01
790.00	547.17
791.00	548.28
792.00	550.38
793.00	562.94
794.00	562.56
795.00	572.02
796.00	563.62
797.00	559.45
798.00	568.39
799.00	580.65
800.00	579.79
801.00	579.87
802.00	581.81
803.00	580.86
804.00	579.61
805.00	574.73
806.00	573.84
807.00	590.80
808.00	588.14
809.00	585.39
810.00	574.18
811.00	581.47
812.00	581.91
813.00	581.13
814.00	577.72
815.00	577.96
816.00	573.97
817.00	566.86
818.00	564.22
819.00	565.55
820.00	553.76
821.00	555.85
822.00	566.46
823.00	554.64
824.00	548.44
825.00	550.29
826.00	543.24
827.00	534.12
828.00	541.40
829.00	540.87
830.00	535.38
831.00	526.39
832.00	529.14
833.00	530.88
834.00	514.39
835.00	521.42
836.00	518.40
837.00	516.32
838.00	510.25
839.00	512.86
840.00	510.32
841.00	503.47
842.00	505.29
843.00	502.05
844.00	495.15
845.00	496.62
846.00	493.11
847.00	491.61
848.00	498.05
849.00	484.27
850.00	479.73
851.00	484.39
852.00	482.19
853.00	487.02
854.00	472.78
855.00	471.05
856.00	469.76
857.00	477.78
858.00	468.63
859.00	468.27
860.00	471.13
861.00	467.80
862.00	464.15
863.00	460.45
864.00	454.28
865.00	456.30
866.00	450.45
867.00	452.24
868.00	457.94
869.00	440.61
870.00	442.30
871.00	442.08
872.00	437.47
873.00	438.59
874.00	439.14
875.00	432.95
876.00	432.27
877.00	432.79
878.00	429.63
879.00	424.85
880.00	422.74
881.00	427.45
882.00	427.42
883.00	415.54
884.00	415.00
885.00	417.20
886.00	415.38
887.00	418.51
888.00	413.47
889.00	413.88
890.00	418.51
891.00	422.90
892.00	414.05
893.00	407.61
894.00	413.33
895.00	410.96
896.00	422.72
897.00	424.14
898.00	423.93
899.00	417.77
900.00	420.76
901.00	434.69
902.00	424.27
903.00	424.73
904.00	429.32
905.00	430.20
906.00	440.00
907.00	428.38
908.00	437.85
909.00	439.96
910.00	439.26
911.00	442.29
912.00	444.92
913.00	445.08
914.00	440.46
915.00	446.94
916.00	440.64
917.00	440.92
918.00	443.38
919.00	436.89
920.00	442.54
921.00	437.84
922.00	433.76
923.00	425.30
924.00	430.33
925.00	419.70
926.00	417.02
927.00	409.28
928.00	408.18
929.00	405.13
930.00	400.50
931.00	395.29
932.00	385.57
933.00	389.85
934.00	380.34
935.00	362.87
936.00	364.23
937.00	346.80
938.00	339.20
939.00	326.15
940.00	309.94
941.00	309.01
942.00	295.07
943.00	290.23
944.00	280.56
945.00	282.73
946.00	269.39
947.00	275.93
948.00	275.65
949.00	275.40
950.00	280.40
951.00	280.88
952.00	282.02
953.00	281.10
954.00	283.39
955.00	283.89
956.00	280.78
957.00	282.61
958.00	288.17
959.00	286.00
960.00	289.66
961.00	293.00
962.00	287.18
963.00	287.39
964.00	288.66
965.00	285.91
966.00	284.04
967.00	277.29
968.00	281.99
969.00	286.08
970.00	285.13
971.00	280.66
972.00	275.46
973.00	269.90
974.00	269.95
975.00	272.89
976.00	273.16
977.00	265.31
978.00	265.60
979.00	260.71
980.00	262.50
981.00	260.32
982.00	265.44
983.00	258.05
984.00	254.10
985.00	257.60
986.00	252.44
987.00	251.73
988.00	254.29
989.00	248.07
990.00	246.35
991.00	246.63
992.00	245.70
993.00	240.69
994.00	241.88
995.00	244.02
996.00	244.21
997.00	237.24
998.00	239.61
999.00	234.51
1000.00	239.94
>>>>>End Processed Spectral Data<<<<<
