SpectraSuite Data File
++++++++++++++++++++++++++++++++++++
Date: Thu Oct 13 11:31:38 CDT 2011
User: Helimak
Dark Spectrum Present: No
Reference Spectrum Present: No
Number of Sampled Component Spectra: 1
Spectrometers: USB2G37154
Integration Time (usec): 20000 (USB2G37154)
Spectra Averaged: 1 (USB2G37154)
Boxcar Smoothing: 0 (USB2G37154)
Correct for Electrical Dark: No (USB2G37154)
Strobe/Lamp Enabled: No (USB2G37154)
Correct for Detector Non-linearity: No (USB2G37154)
Correct for Stray Light: No (USB2G37154)
Number of Pixels in Processed Spectrum: 651
>>>>>Begin Processed Spectral Data<<<<<
350.00	199.99
351.00	200.79
352.00	204.52
353.00	204.31
354.00	199.77
355.00	204.18
356.00	203.95
357.00	204.50
358.00	203.05
359.00	201.60
360.00	205.45
361.00	199.51
362.00	207.07
363.00	202.71
364.00	206.01
365.00	208.66
366.00	203.10
367.00	203.15
368.00	207.13
369.00	207.45
370.00	210.00
371.00	205.96
372.00	207.02
373.00	201.91
374.00	204.87
375.00	206.90
376.00	207.45
377.00	209.62
378.00	206.80
379.00	208.34
380.00	208.64
381.00	207.22
382.00	209.67
383.00	210.04
384.00	208.70
385.00	207.89
386.00	210.96
387.00	213.81
388.00	212.96
389.00	206.88
390.00	211.95
391.00	209.09
392.00	211.45
393.00	217.72
394.00	217.93
395.00	214.48
396.00	211.93
397.00	210.84
398.00	212.42
399.00	217.03
400.00	216.70
401.00	215.69
402.00	216.61
403.00	219.10
404.00	214.65
405.00	221.24
406.00	222.01
407.00	220.25
408.00	219.58
409.00	221.35
410.00	223.59
411.00	222.27
412.00	221.94
413.00	224.84
414.00	220.77
415.00	227.41
416.00	223.32
417.00	223.35
418.00	226.77
419.00	227.03
420.00	227.17
421.00	232.73
422.00	232.46
423.00	228.58
424.00	222.96
425.00	231.48
426.00	237.96
427.00	235.93
428.00	237.76
429.00	242.12
430.00	238.42
431.00	238.22
432.00	244.97
433.00	241.90
434.00	246.16
435.00	247.44
436.00	243.63
437.00	246.56
438.00	245.37
439.00	246.13
440.00	242.66
441.00	245.99
442.00	244.09
443.00	242.85
444.00	247.26
445.00	249.15
446.00	250.02
447.00	247.08
448.00	253.11
449.00	250.99
450.00	254.60
451.00	258.26
452.00	259.08
453.00	264.79
454.00	264.76
455.00	270.69
456.00	273.81
457.00	281.14
458.00	273.01
459.00	278.97
460.00	278.11
461.00	278.74
462.00	279.11
463.00	277.29
464.00	281.02
465.00	275.75
466.00	280.36
467.00	279.66
468.00	285.29
469.00	278.93
470.00	285.36
471.00	283.54
472.00	281.84
473.00	282.06
474.00	282.92
475.00	295.78
476.00	294.27
477.00	295.54
478.00	299.09
479.00	304.41
480.00	308.77
481.00	313.37
482.00	311.76
483.00	322.19
484.00	326.18
485.00	330.55
486.00	333.34
487.00	338.92
488.00	348.45
489.00	352.85
490.00	355.23
491.00	362.70
492.00	366.78
493.00	368.30
494.00	377.14
495.00	373.85
496.00	377.59
497.00	390.06
498.00	386.64
499.00	385.63
500.00	383.53
501.00	389.66
502.00	386.00
503.00	386.65
504.00	380.90
505.00	382.79
506.00	381.69
507.00	391.25
508.00	384.03
509.00	384.81
510.00	381.73
511.00	390.08
512.00	397.03
513.00	398.89
514.00	388.15
515.00	391.04
516.00	400.98
517.00	395.67
518.00	409.67
519.00	404.61
520.00	405.76
521.00	425.44
522.00	419.20
523.00	421.20
524.00	428.55
525.00	433.37
526.00	432.27
527.00	449.94
528.00	447.92
529.00	455.28
530.00	456.05
531.00	472.85
532.00	465.76
533.00	484.12
534.00	477.86
535.00	490.25
536.00	484.72
537.00	485.21
538.00	491.05
539.00	494.52
540.00	496.74
541.00	497.58
542.00	505.07
543.00	506.01
544.00	503.37
545.00	496.57
546.00	501.09
547.00	493.97
548.00	498.53
549.00	501.19
550.00	493.53
551.00	495.03
552.00	502.80
553.00	494.76
554.00	495.96
555.00	495.30
556.00	492.98
557.00	500.56
558.00	492.94
559.00	501.85
560.00	500.75
561.00	499.97
562.00	504.48
563.00	501.83
564.00	505.57
565.00	511.36
566.00	521.21
567.00	523.47
568.00	521.91
569.00	512.84
570.00	540.20
571.00	537.84
572.00	532.54
573.00	541.58
574.00	543.26
575.00	547.84
576.00	558.42
577.00	560.92
578.00	567.04
579.00	567.46
580.00	564.38
581.00	573.22
582.00	579.98
583.00	575.35
584.00	589.35
585.00	577.02
586.00	579.49
587.00	589.18
588.00	576.47
589.00	583.72
590.00	582.75
591.00	580.88
592.00	580.65
593.00	574.85
594.00	582.01
595.00	578.89
596.00	582.03
597.00	569.07
598.00	570.41
599.00	576.59
600.00	584.19
601.00	563.31
602.00	566.40
603.00	569.66
604.00	580.71
605.00	578.07
606.00	571.11
607.00	578.06
608.00	572.03
609.00	571.12
610.00	571.66
611.00	592.05
612.00	580.74
613.00	570.02
614.00	582.93
615.00	588.18
616.00	585.82
617.00	583.98
618.00	597.66
619.00	586.63
620.00	592.10
621.00	584.18
622.00	592.16
623.00	599.46
624.00	600.38
625.00	592.52
626.00	609.03
627.00	606.78
628.00	612.18
629.00	610.78
630.00	612.43
631.00	618.96
632.00	617.27
633.00	620.04
634.00	617.87
635.00	618.98
636.00	616.87
637.00	610.28
638.00	624.58
639.00	622.29
640.00	628.56
641.00	623.15
642.00	625.34
643.00	624.47
644.00	617.25
645.00	614.47
646.00	623.01
647.00	611.71
648.00	605.72
649.00	605.18
650.00	611.47
651.00	598.12
652.00	602.42
653.00	599.63
654.00	596.20
655.00	593.20
656.00	587.87
657.00	588.77
658.00	589.01
659.00	581.86
660.00	576.51
661.00	580.80
662.00	576.77
663.00	579.36
664.00	571.79
665.00	579.82
666.00	570.53
667.00	577.90
668.00	577.40
669.00	570.92
670.00	571.32
671.00	568.93
672.00	570.22
673.00	559.97
674.00	573.90
675.00	564.94
676.00	561.41
677.00	571.17
678.00	554.21
679.00	573.08
680.00	569.92
681.00	564.74
682.00	564.05
683.00	572.30
684.00	575.04
685.00	575.23
686.00	575.14
687.00	567.41
688.00	571.82
689.00	578.90
690.00	576.34
691.00	582.20
692.00	586.65
693.00	575.77
694.00	572.72
695.00	574.06
696.00	582.00
697.00	587.01
698.00	591.65
699.00	585.98
700.00	583.09
701.00	584.05
702.00	598.22
703.00	595.72
704.00	594.61
705.00	587.62
706.00	583.16
707.00	582.16
708.00	594.94
709.00	592.41
710.00	587.76
711.00	589.65
712.00	589.69
713.00	586.70
714.00	586.87
715.00	591.36
716.00	583.47
717.00	570.30
718.00	573.28
719.00	568.78
720.00	568.88
721.00	552.81
722.00	563.28
723.00	549.63
724.00	547.42
725.00	548.29
726.00	540.33
727.00	535.72
728.00	537.10
729.00	536.42
730.00	535.97
731.00	535.30
732.00	528.32
733.00	533.37
734.00	518.89
735.00	536.10
736.00	521.22
737.00	516.36
738.00	520.91
739.00	514.61
740.00	520.51
741.00	524.17
742.00	515.96
743.00	521.84
744.00	508.33
745.00	500.95
746.00	506.36
747.00	514.53
748.00	506.96
749.00	504.61
750.00	507.88
751.00	515.03
752.00	517.69
753.00	503.32
754.00	505.40
755.00	509.50
756.00	499.37
757.00	505.24
758.00	502.79
759.00	509.17
760.00	505.26
761.00	509.63
762.00	510.25
763.00	510.97
764.00	499.93
765.00	503.35
766.00	505.63
767.00	512.46
768.00	504.84
769.00	512.79
770.00	505.18
771.00	504.46
772.00	512.12
773.00	509.18
774.00	512.06
775.00	508.67
776.00	509.69
777.00	508.85
778.00	499.98
779.00	511.12
780.00	517.49
781.00	518.20
782.00	513.94
783.00	519.18
784.00	524.48
785.00	516.95
786.00	527.79
787.00	528.96
788.00	538.25
789.00	556.98
790.00	552.41
791.00	548.23
792.00	560.13
793.00	558.28
794.00	559.14
795.00	566.72
796.00	570.98
797.00	578.44
798.00	584.01
799.00	580.45
800.00	572.51
801.00	592.38
802.00	581.58
803.00	584.74
804.00	583.88
805.00	583.45
806.00	572.07
807.00	589.83
808.00	574.09
809.00	587.78
810.00	589.96
811.00	585.37
812.00	577.72
813.00	581.14
814.00	586.30
815.00	574.37
816.00	569.34
817.00	575.11
818.00	566.94
819.00	569.13
820.00	557.08
821.00	563.05
822.00	551.64
823.00	552.02
824.00	546.88
825.00	543.66
826.00	548.48
827.00	543.01
828.00	538.93
829.00	553.04
830.00	530.37
831.00	527.97
832.00	527.25
833.00	527.86
834.00	526.36
835.00	516.26
836.00	522.15
837.00	507.86
838.00	510.66
839.00	516.93
840.00	498.30
841.00	499.71
842.00	501.83
843.00	504.12
844.00	493.93
845.00	496.99
846.00	498.18
847.00	489.05
848.00	490.24
849.00	497.38
850.00	484.73
851.00	483.57
852.00	472.86
853.00	472.92
854.00	473.02
855.00	476.07
856.00	463.03
857.00	470.50
858.00	472.25
859.00	467.14
860.00	466.38
861.00	469.11
862.00	464.74
863.00	454.91
864.00	457.33
865.00	461.74
866.00	449.27
867.00	455.22
868.00	456.94
869.00	443.36
870.00	447.17
871.00	437.68
872.00	448.13
873.00	442.61
874.00	436.22
875.00	435.86
876.00	426.93
877.00	421.69
878.00	426.28
879.00	424.68
880.00	430.47
881.00	440.31
882.00	426.34
883.00	423.82
884.00	420.01
885.00	421.05
886.00	423.59
887.00	422.54
888.00	419.09
889.00	417.63
890.00	417.51
891.00	419.91
892.00	422.87
893.00	419.69
894.00	406.27
895.00	417.30
896.00	425.46
897.00	419.82
898.00	420.00
899.00	416.04
900.00	430.65
901.00	432.55
902.00	424.98
903.00	436.49
904.00	430.45
905.00	433.06
906.00	435.20
907.00	436.93
908.00	442.80
909.00	441.10
910.00	434.95
911.00	434.85
912.00	438.63
913.00	440.68
914.00	440.33
915.00	448.36
916.00	437.66
917.00	442.84
918.00	447.18
919.00	433.73
920.00	436.38
921.00	432.55
922.00	426.27
923.00	424.20
924.00	421.56
925.00	420.61
926.00	409.99
927.00	404.95
928.00	407.98
929.00	398.81
930.00	401.30
931.00	398.36
932.00	386.07
933.00	379.70
934.00	374.47
935.00	374.51
936.00	364.32
937.00	347.83
938.00	333.98
939.00	322.28
940.00	313.98
941.00	302.08
942.00	290.95
943.00	283.85
944.00	279.70
945.00	276.09
946.00	274.20
947.00	276.10
948.00	271.15
949.00	275.56
950.00	273.38
951.00	275.10
952.00	283.97
953.00	283.79
954.00	284.21
955.00	285.99
956.00	279.52
957.00	283.28
958.00	284.34
959.00	285.93
960.00	287.86
961.00	285.41
962.00	286.99
963.00	283.41
964.00	284.12
965.00	279.38
966.00	283.73
967.00	285.61
968.00	286.02
969.00	283.49
970.00	277.54
971.00	275.15
972.00	278.74
973.00	272.34
974.00	275.13
975.00	275.61
976.00	267.70
977.00	268.74
978.00	261.21
979.00	265.25
980.00	265.21
981.00	259.57
982.00	263.42
983.00	261.63
984.00	254.46
985.00	255.85
986.00	253.99
987.00	250.26
988.00	249.68
989.00	250.94
990.00	249.27
991.00	247.14
992.00	239.49
993.00	241.13
994.00	241.13
995.00	242.46
996.00	239.01
997.00	237.32
998.00	239.91
999.00	237.69
1000.00	236.84
>>>>>End Processed Spectral Data<<<<<
