SpectraSuite Data File
++++++++++++++++++++++++++++++++++++
Date: Thu Oct 13 11:31:38 CDT 2011
User: Helimak
Dark Spectrum Present: No
Reference Spectrum Present: No
Number of Sampled Component Spectra: 1
Spectrometers: USB2G37154
Integration Time (usec): 20000 (USB2G37154)
Spectra Averaged: 1 (USB2G37154)
Boxcar Smoothing: 0 (USB2G37154)
Correct for Electrical Dark: No (USB2G37154)
Strobe/Lamp Enabled: No (USB2G37154)
Correct for Detector Non-linearity: No (USB2G37154)
Correct for Stray Light: No (USB2G37154)
Number of Pixels in Processed Spectrum: 651
>>>>>Begin Processed Spectral Data<<<<<
350.00	204.75
351.00	203.44
352.00	205.91
353.00	202.17
354.00	203.74
355.00	205.33
356.00	204.58
357.00	203.06
358.00	199.22
359.00	203.07
360.00	205.91
361.00	204.15
362.00	204.06
363.00	204.27
364.00	207.01
365.00	205.65
366.00	202.31
367.00	199.98
368.00	206.02
369.00	204.43
370.00	208.01
371.00	204.41
372.00	208.13
373.00	207.14
374.00	213.52
375.00	206.28
376.00	206.04
377.00	205.76
378.00	207.64
379.00	209.18
380.00	208.30
381.00	206.05
382.00	211.03
383.00	198.13
384.00	209.49
385.00	212.77
386.00	205.95
387.00	207.70
388.00	209.44
389.00	213.29
390.00	215.39
391.00	209.08
392.00	209.56
393.00	212.57
394.00	213.55
395.00	212.30
396.00	212.14
397.00	213.81
398.00	214.75
399.00	218.13
400.00	219.14
401.00	218.54
402.00	220.43
403.00	221.52
404.00	218.69
405.00	220.85
406.00	216.02
407.00	221.23
408.00	219.19
409.00	210.13
410.00	219.33
411.00	222.94
412.00	222.22
413.00	224.00
414.00	224.69
415.00	225.12
416.00	224.93
417.00	225.39
418.00	227.21
419.00	224.44
420.00	224.67
421.00	226.08
422.00	227.89
423.00	230.50
424.00	233.24
425.00	235.42
426.00	235.64
427.00	232.03
428.00	239.83
429.00	236.68
430.00	242.88
431.00	240.55
432.00	240.62
433.00	244.69
434.00	245.04
435.00	242.84
436.00	243.19
437.00	242.88
438.00	239.96
439.00	245.69
440.00	249.18
441.00	246.64
442.00	247.84
443.00	243.40
444.00	253.32
445.00	255.16
446.00	249.39
447.00	254.10
448.00	251.00
449.00	255.00
450.00	254.45
451.00	263.01
452.00	264.79
453.00	262.03
454.00	267.65
455.00	267.36
456.00	277.72
457.00	270.98
458.00	277.31
459.00	276.51
460.00	273.98
461.00	273.95
462.00	281.53
463.00	282.39
464.00	292.04
465.00	276.83
466.00	283.23
467.00	279.15
468.00	274.47
469.00	276.58
470.00	279.94
471.00	277.85
472.00	281.87
473.00	281.95
474.00	287.91
475.00	290.21
476.00	292.51
477.00	288.20
478.00	298.87
479.00	304.79
480.00	308.67
481.00	309.88
482.00	310.79
483.00	317.38
484.00	323.81
485.00	316.16
486.00	332.16
487.00	341.97
488.00	349.81
489.00	358.95
490.00	358.48
491.00	366.53
492.00	369.24
493.00	371.07
494.00	369.49
495.00	380.80
496.00	375.87
497.00	380.79
498.00	388.16
499.00	372.00
500.00	384.21
501.00	381.90
502.00	375.99
503.00	376.51
504.00	381.71
505.00	381.75
506.00	390.36
507.00	387.34
508.00	381.62
509.00	386.12
510.00	383.26
511.00	390.05
512.00	394.59
513.00	389.06
514.00	393.08
515.00	398.73
516.00	393.70
517.00	395.64
518.00	403.94
519.00	413.99
520.00	408.31
521.00	403.71
522.00	418.31
523.00	428.17
524.00	427.67
525.00	440.55
526.00	435.11
527.00	446.60
528.00	447.59
529.00	447.58
530.00	463.07
531.00	461.21
532.00	474.49
533.00	476.30
534.00	473.21
535.00	483.86
536.00	474.94
537.00	484.40
538.00	491.63
539.00	495.85
540.00	495.44
541.00	506.71
542.00	510.02
543.00	511.57
544.00	500.43
545.00	495.45
546.00	503.75
547.00	497.85
548.00	491.78
549.00	495.84
550.00	506.17
551.00	494.00
552.00	502.44
553.00	493.82
554.00	495.14
555.00	490.76
556.00	500.07
557.00	500.14
558.00	500.47
559.00	504.38
560.00	504.25
561.00	505.89
562.00	503.28
563.00	504.45
564.00	510.65
565.00	513.57
566.00	511.01
567.00	523.93
568.00	518.26
569.00	531.43
570.00	532.19
571.00	536.91
572.00	540.41
573.00	538.89
574.00	544.06
575.00	552.20
576.00	555.62
577.00	563.64
578.00	564.20
579.00	553.26
580.00	582.63
581.00	569.25
582.00	577.81
583.00	583.69
584.00	580.11
585.00	571.18
586.00	581.69
587.00	574.11
588.00	582.00
589.00	581.64
590.00	581.41
591.00	575.32
592.00	586.55
593.00	572.65
594.00	589.04
595.00	581.98
596.00	574.99
597.00	579.41
598.00	570.70
599.00	567.33
600.00	567.39
601.00	570.10
602.00	573.51
603.00	564.05
604.00	562.83
605.00	573.18
606.00	586.61
607.00	574.77
608.00	579.99
609.00	573.08
610.00	581.41
611.00	581.20
612.00	588.87
613.00	577.23
614.00	583.78
615.00	587.06
616.00	580.51
617.00	588.93
618.00	585.90
619.00	604.88
620.00	586.36
621.00	593.41
622.00	597.38
623.00	601.19
624.00	595.71
625.00	599.94
626.00	612.10
627.00	612.65
628.00	608.30
629.00	603.82
630.00	613.63
631.00	607.96
632.00	620.92
633.00	604.58
634.00	622.31
635.00	620.09
636.00	621.82
637.00	623.15
638.00	629.51
639.00	623.67
640.00	630.77
641.00	619.58
642.00	623.30
643.00	624.75
644.00	608.68
645.00	616.80
646.00	608.04
647.00	596.76
648.00	616.00
649.00	606.52
650.00	605.76
651.00	611.19
652.00	599.63
653.00	593.19
654.00	592.42
655.00	580.26
656.00	587.78
657.00	583.97
658.00	587.99
659.00	583.48
660.00	573.80
661.00	579.93
662.00	568.05
663.00	570.17
664.00	572.81
665.00	570.71
666.00	582.16
667.00	568.50
668.00	569.06
669.00	570.27
670.00	560.26
671.00	563.74
672.00	559.81
673.00	564.01
674.00	562.29
675.00	567.30
676.00	567.08
677.00	568.83
678.00	564.76
679.00	567.96
680.00	557.30
681.00	561.71
682.00	559.46
683.00	572.11
684.00	573.95
685.00	576.29
686.00	575.54
687.00	571.87
688.00	569.91
689.00	578.64
690.00	578.53
691.00	586.37
692.00	568.29
693.00	583.97
694.00	583.21
695.00	582.99
696.00	592.00
697.00	581.20
698.00	587.31
699.00	585.63
700.00	583.04
701.00	584.46
702.00	586.13
703.00	599.24
704.00	580.79
705.00	597.01
706.00	598.59
707.00	582.67
708.00	593.11
709.00	594.42
710.00	579.88
711.00	584.54
712.00	590.86
713.00	593.63
714.00	584.13
715.00	585.40
716.00	570.97
717.00	578.07
718.00	574.64
719.00	570.22
720.00	559.02
721.00	557.77
722.00	551.68
723.00	548.83
724.00	538.05
725.00	542.75
726.00	547.13
727.00	535.34
728.00	533.44
729.00	539.22
730.00	527.27
731.00	544.03
732.00	527.44
733.00	532.01
734.00	533.42
735.00	531.50
736.00	521.93
737.00	510.51
738.00	523.39
739.00	512.42
740.00	518.52
741.00	516.85
742.00	512.98
743.00	520.89
744.00	513.12
745.00	507.95
746.00	504.24
747.00	505.68
748.00	515.73
749.00	510.07
750.00	503.60
751.00	502.61
752.00	504.61
753.00	512.05
754.00	509.16
755.00	507.20
756.00	505.57
757.00	506.28
758.00	502.43
759.00	507.70
760.00	513.44
761.00	504.54
762.00	508.66
763.00	513.24
764.00	506.98
765.00	504.17
766.00	499.55
767.00	506.34
768.00	505.87
769.00	504.33
770.00	509.32
771.00	507.09
772.00	512.97
773.00	505.00
774.00	511.54
775.00	509.55
776.00	506.53
777.00	505.03
778.00	506.97
779.00	515.99
780.00	505.51
781.00	511.48
782.00	517.53
783.00	510.39
784.00	525.13
785.00	525.55
786.00	534.56
787.00	535.50
788.00	537.85
789.00	549.97
790.00	539.26
791.00	545.37
792.00	551.64
793.00	566.70
794.00	561.84
795.00	566.29
796.00	572.92
797.00	576.72
798.00	572.31
799.00	581.13
800.00	586.04
801.00	573.93
802.00	585.41
803.00	590.05
804.00	588.79
805.00	577.06
806.00	584.55
807.00	584.00
808.00	592.85
809.00	578.30
810.00	576.61
811.00	579.52
812.00	587.06
813.00	576.78
814.00	576.28
815.00	573.72
816.00	578.44
817.00	572.95
818.00	563.24
819.00	564.83
820.00	556.95
821.00	565.99
822.00	549.10
823.00	563.15
824.00	546.11
825.00	547.72
826.00	542.03
827.00	542.61
828.00	542.36
829.00	529.12
830.00	527.94
831.00	526.89
832.00	524.24
833.00	522.28
834.00	525.76
835.00	520.47
836.00	510.57
837.00	517.41
838.00	509.58
839.00	514.77
840.00	510.23
841.00	497.05
842.00	496.18
843.00	487.19
844.00	499.03
845.00	502.50
846.00	480.38
847.00	480.99
848.00	482.81
849.00	494.49
850.00	484.21
851.00	484.45
852.00	479.27
853.00	486.43
854.00	467.55
855.00	476.83
856.00	461.69
857.00	466.03
858.00	458.03
859.00	465.14
860.00	465.48
861.00	461.94
862.00	464.74
863.00	461.92
864.00	458.32
865.00	460.23
866.00	457.53
867.00	455.74
868.00	457.05
869.00	452.07
870.00	443.66
871.00	448.44
872.00	443.52
873.00	444.30
874.00	434.17
875.00	435.03
876.00	431.32
877.00	432.97
878.00	429.27
879.00	425.97
880.00	431.37
881.00	421.47
882.00	418.30
883.00	422.52
884.00	425.99
885.00	424.72
886.00	423.64
887.00	419.33
888.00	428.49
889.00	414.03
890.00	414.01
891.00	410.40
892.00	414.81
893.00	409.28
894.00	410.41
895.00	425.82
896.00	416.09
897.00	418.19
898.00	424.08
899.00	424.03
900.00	428.82
901.00	430.13
902.00	433.20
903.00	438.88
904.00	436.80
905.00	431.72
906.00	434.94
907.00	436.20
908.00	444.97
909.00	439.06
910.00	434.00
911.00	441.43
912.00	438.94
913.00	442.52
914.00	440.61
915.00	447.49
916.00	444.24
917.00	435.23
918.00	430.27
919.00	433.56
920.00	433.35
921.00	435.32
922.00	433.39
923.00	417.05
924.00	416.15
925.00	419.11
926.00	415.98
927.00	415.61
928.00	412.47
929.00	407.23
930.00	400.62
931.00	401.93
932.00	389.49
933.00	382.79
934.00	375.44
935.00	363.23
936.00	363.65
937.00	349.42
938.00	337.96
939.00	328.31
940.00	309.82
941.00	300.35
942.00	297.92
943.00	288.32
944.00	279.46
945.00	277.16
946.00	283.17
947.00	276.03
948.00	273.34
949.00	274.86
950.00	281.06
951.00	277.64
952.00	283.97
953.00	277.98
954.00	283.10
955.00	284.40
956.00	286.60
957.00	286.62
958.00	291.22
959.00	283.94
960.00	286.55
961.00	283.43
962.00	283.17
963.00	286.69
964.00	286.64
965.00	282.86
966.00	282.00
967.00	281.54
968.00	286.00
969.00	283.69
970.00	275.71
971.00	274.25
972.00	278.95
973.00	275.87
974.00	274.31
975.00	269.58
976.00	272.26
977.00	265.91
978.00	267.87
979.00	263.87
980.00	262.03
981.00	262.62
982.00	256.43
983.00	257.62
984.00	260.15
985.00	259.23
986.00	249.39
987.00	252.90
988.00	245.12
989.00	254.62
990.00	243.97
991.00	248.56
992.00	244.13
993.00	242.22
994.00	239.94
995.00	240.42
996.00	237.28
997.00	239.70
998.00	233.45
999.00	237.16
1000.00	233.93
>>>>>End Processed Spectral Data<<<<<
