SpectraSuite Data File
++++++++++++++++++++++++++++++++++++
Date: Thu Oct 13 11:19:58 CDT 2011
User: Helimak
Dark Spectrum Present: No
Reference Spectrum Present: No
Number of Sampled Component Spectra: 1
Spectrometers: USB2G37154
Integration Time (usec): 20000 (USB2G37154)
Spectra Averaged: 1 (USB2G37154)
Boxcar Smoothing: 0 (USB2G37154)
Correct for Electrical Dark: No (USB2G37154)
Strobe/Lamp Enabled: No (USB2G37154)
Correct for Detector Non-linearity: No (USB2G37154)
Correct for Stray Light: No (USB2G37154)
Number of Pixels in Processed Spectrum: 651
>>>>>Begin Processed Spectral Data<<<<<
350.00	203.59
351.00	206.89
352.00	201.29
353.00	204.35
354.00	199.12
355.00	203.32
356.00	205.78
357.00	207.47
358.00	203.18
359.00	206.05
360.00	203.49
361.00	204.89
362.00	204.10
363.00	208.45
364.00	208.24
365.00	208.18
366.00	205.56
367.00	208.13
368.00	205.83
369.00	204.15
370.00	205.01
371.00	210.09
372.00	207.46
373.00	209.05
374.00	210.10
375.00	208.91
376.00	209.10
377.00	204.80
378.00	209.72
379.00	210.68
380.00	205.75
381.00	210.83
382.00	211.53
383.00	208.17
384.00	213.33
385.00	214.33
386.00	214.02
387.00	207.75
388.00	216.93
389.00	212.99
390.00	216.12
391.00	216.23
392.00	214.20
393.00	212.41
394.00	215.05
395.00	219.11
396.00	227.00
397.00	219.75
398.00	223.68
399.00	221.02
400.00	221.26
401.00	222.90
402.00	227.30
403.00	230.56
404.00	227.24
405.00	229.55
406.00	231.00
407.00	228.34
408.00	231.41
409.00	239.32
410.00	233.66
411.00	234.91
412.00	236.25
413.00	235.16
414.00	239.86
415.00	242.21
416.00	242.92
417.00	245.60
418.00	247.65
419.00	244.84
420.00	246.08
421.00	253.15
422.00	248.36
423.00	255.71
424.00	259.60
425.00	260.13
426.00	266.12
427.00	274.74
428.00	276.24
429.00	272.34
430.00	275.50
431.00	282.02
432.00	273.51
433.00	277.66
434.00	279.03
435.00	282.47
436.00	281.88
437.00	282.96
438.00	278.84
439.00	285.93
440.00	284.63
441.00	287.00
442.00	292.51
443.00	291.42
444.00	294.74
445.00	290.89
446.00	307.57
447.00	301.83
448.00	306.74
449.00	313.00
450.00	317.29
451.00	325.21
452.00	328.56
453.00	336.77
454.00	335.18
455.00	339.04
456.00	346.45
457.00	355.17
458.00	353.47
459.00	364.87
460.00	363.42
461.00	373.29
462.00	371.17
463.00	369.06
464.00	365.70
465.00	371.10
466.00	368.97
467.00	370.54
468.00	370.63
469.00	381.30
470.00	374.54
471.00	381.26
472.00	384.07
473.00	392.24
474.00	394.16
475.00	400.35
476.00	417.90
477.00	415.71
478.00	433.18
479.00	438.33
480.00	448.11
481.00	459.08
482.00	472.22
483.00	478.17
484.00	490.95
485.00	509.56
486.00	531.17
487.00	533.02
488.00	551.43
489.00	577.90
490.00	572.02
491.00	596.92
492.00	611.47
493.00	624.78
494.00	630.53
495.00	636.86
496.00	650.19
497.00	654.56
498.00	652.62
499.00	669.48
500.00	672.74
501.00	678.80
502.00	678.00
503.00	681.55
504.00	681.14
505.00	680.18
506.00	681.11
507.00	697.77
508.00	688.89
509.00	684.63
510.00	710.39
511.00	710.96
512.00	716.55
513.00	715.58
514.00	719.22
515.00	739.72
516.00	738.19
517.00	742.91
518.00	772.60
519.00	781.06
520.00	786.02
521.00	806.35
522.00	814.06
523.00	825.23
524.00	844.11
525.00	855.52
526.00	869.62
527.00	894.34
528.00	910.14
529.00	935.01
530.00	972.53
531.00	975.43
532.00	985.08
533.00	1014.73
534.00	1050.56
535.00	1032.41
536.00	1050.39
537.00	1066.63
538.00	1087.52
539.00	1116.27
540.00	1108.20
541.00	1126.58
542.00	1107.10
543.00	1127.24
544.00	1127.82
545.00	1124.05
546.00	1126.59
547.00	1118.71
548.00	1121.13
549.00	1129.93
550.00	1134.46
551.00	1138.03
552.00	1136.64
553.00	1126.24
554.00	1128.54
555.00	1137.51
556.00	1139.32
557.00	1143.89
558.00	1153.21
559.00	1188.80
560.00	1176.28
561.00	1189.10
562.00	1213.55
563.00	1208.06
564.00	1230.74
565.00	1233.68
566.00	1244.11
567.00	1254.78
568.00	1261.61
569.00	1286.95
570.00	1314.38
571.00	1314.58
572.00	1324.39
573.00	1349.02
574.00	1344.59
575.00	1379.39
576.00	1397.97
577.00	1413.58
578.00	1433.31
579.00	1440.47
580.00	1449.99
581.00	1471.08
582.00	1466.91
583.00	1477.79
584.00	1494.87
585.00	1469.66
586.00	1492.26
587.00	1503.49
588.00	1507.65
589.00	1513.34
590.00	1482.62
591.00	1492.26
592.00	1501.01
593.00	1492.00
594.00	1502.98
595.00	1502.79
596.00	1496.81
597.00	1489.32
598.00	1484.92
599.00	1486.92
600.00	1502.72
601.00	1487.28
602.00	1494.98
603.00	1470.41
604.00	1477.44
605.00	1473.69
606.00	1493.60
607.00	1478.16
608.00	1487.36
609.00	1490.88
610.00	1487.47
611.00	1516.94
612.00	1510.36
613.00	1508.83
614.00	1495.79
615.00	1518.27
616.00	1515.25
617.00	1522.92
618.00	1520.84
619.00	1534.37
620.00	1545.28
621.00	1537.14
622.00	1559.28
623.00	1551.71
624.00	1573.41
625.00	1566.77
626.00	1592.93
627.00	1597.67
628.00	1607.42
629.00	1620.95
630.00	1607.69
631.00	1629.20
632.00	1640.92
633.00	1620.02
634.00	1622.73
635.00	1622.91
636.00	1621.40
637.00	1606.89
638.00	1624.78
639.00	1627.39
640.00	1612.04
641.00	1609.52
642.00	1598.95
643.00	1602.39
644.00	1621.51
645.00	1610.71
646.00	1590.91
647.00	1583.13
648.00	1570.73
649.00	1552.29
650.00	1561.31
651.00	1546.93
652.00	1536.34
653.00	1519.91
654.00	1513.63
655.00	1487.76
656.00	1489.47
657.00	1455.72
658.00	1467.96
659.00	1454.58
660.00	1444.88
661.00	1452.33
662.00	1439.43
663.00	1440.78
664.00	1405.92
665.00	1417.18
666.00	1412.06
667.00	1388.84
668.00	1389.18
669.00	1384.31
670.00	1393.88
671.00	1371.37
672.00	1369.80
673.00	1364.16
674.00	1370.45
675.00	1353.84
676.00	1340.02
677.00	1345.21
678.00	1336.99
679.00	1342.30
680.00	1326.23
681.00	1338.69
682.00	1339.61
683.00	1341.98
684.00	1347.43
685.00	1341.10
686.00	1325.72
687.00	1341.79
688.00	1337.54
689.00	1342.28
690.00	1342.91
691.00	1332.59
692.00	1350.91
693.00	1350.90
694.00	1349.79
695.00	1349.29
696.00	1393.00
697.00	1353.23
698.00	1352.36
699.00	1369.15
700.00	1364.57
701.00	1358.26
702.00	1378.78
703.00	1346.48
704.00	1341.78
705.00	1339.69
706.00	1335.26
707.00	1318.14
708.00	1312.20
709.00	1323.32
710.00	1302.46
711.00	1318.45
712.00	1305.27
713.00	1291.68
714.00	1266.63
715.00	1278.41
716.00	1266.88
717.00	1265.09
718.00	1223.06
719.00	1239.30
720.00	1195.18
721.00	1181.56
722.00	1162.99
723.00	1153.45
724.00	1146.02
725.00	1148.68
726.00	1127.28
727.00	1102.66
728.00	1111.34
729.00	1110.05
730.00	1102.26
731.00	1081.23
732.00	1088.94
733.00	1055.46
734.00	1065.71
735.00	1064.11
736.00	1053.12
737.00	1036.91
738.00	1053.17
739.00	1024.96
740.00	1021.38
741.00	1014.02
742.00	1001.94
743.00	981.85
744.00	996.14
745.00	972.81
746.00	953.26
747.00	955.68
748.00	969.14
749.00	942.27
750.00	924.24
751.00	924.02
752.00	929.27
753.00	929.55
754.00	922.73
755.00	912.49
756.00	894.73
757.00	890.00
758.00	894.76
759.00	892.43
760.00	868.63
761.00	871.21
762.00	875.14
763.00	851.67
764.00	856.00
765.00	850.39
766.00	846.20
767.00	848.28
768.00	845.39
769.00	836.34
770.00	848.57
771.00	835.71
772.00	827.36
773.00	831.83
774.00	832.51
775.00	806.86
776.00	791.33
777.00	805.14
778.00	779.98
779.00	794.66
780.00	794.81
781.00	781.24
782.00	773.44
783.00	788.34
784.00	786.09
785.00	792.28
786.00	791.61
787.00	781.63
788.00	806.39
789.00	799.95
790.00	802.90
791.00	807.88
792.00	813.61
793.00	813.97
794.00	797.91
795.00	815.57
796.00	809.94
797.00	810.81
798.00	817.16
799.00	808.79
800.00	809.02
801.00	805.01
802.00	807.86
803.00	800.57
804.00	796.08
805.00	789.30
806.00	784.60
807.00	783.90
808.00	777.38
809.00	773.24
810.00	773.99
811.00	768.51
812.00	756.08
813.00	761.31
814.00	727.94
815.00	726.92
816.00	726.45
817.00	719.26
818.00	706.04
819.00	704.76
820.00	698.12
821.00	693.71
822.00	696.36
823.00	668.35
824.00	673.29
825.00	665.67
826.00	653.04
827.00	639.18
828.00	644.28
829.00	637.49
830.00	613.57
831.00	614.28
832.00	615.02
833.00	605.07
834.00	579.91
835.00	593.73
836.00	584.44
837.00	573.03
838.00	564.82
839.00	555.28
840.00	561.48
841.00	547.05
842.00	547.59
843.00	551.04
844.00	543.86
845.00	536.65
846.00	527.82
847.00	518.71
848.00	518.37
849.00	511.30
850.00	518.87
851.00	509.34
852.00	508.51
853.00	495.92
854.00	490.24
855.00	485.25
856.00	479.65
857.00	483.10
858.00	473.44
859.00	476.64
860.00	473.06
861.00	473.98
862.00	463.42
863.00	458.65
864.00	456.76
865.00	448.56
866.00	445.73
867.00	447.38
868.00	433.99
869.00	436.44
870.00	427.08
871.00	425.59
872.00	425.75
873.00	422.89
874.00	424.25
875.00	413.36
876.00	411.24
877.00	412.46
878.00	396.71
879.00	397.09
880.00	390.96
881.00	401.51
882.00	395.13
883.00	394.87
884.00	386.01
885.00	391.79
886.00	389.91
887.00	381.37
888.00	386.87
889.00	374.37
890.00	374.10
891.00	378.12
892.00	371.60
893.00	372.19
894.00	368.57
895.00	371.13
896.00	377.69
897.00	372.83
898.00	370.76
899.00	363.06
900.00	373.67
901.00	372.01
902.00	368.21
903.00	371.49
904.00	364.98
905.00	369.95
906.00	362.98
907.00	367.02
908.00	357.16
909.00	359.94
910.00	373.01
911.00	363.91
912.00	368.14
913.00	359.70
914.00	360.99
915.00	360.18
916.00	355.83
917.00	359.86
918.00	353.74
919.00	351.69
920.00	352.01
921.00	352.54
922.00	345.09
923.00	339.93
924.00	339.79
925.00	341.91
926.00	332.97
927.00	326.96
928.00	328.48
929.00	324.40
930.00	321.76
931.00	325.15
932.00	315.12
933.00	312.45
934.00	310.99
935.00	300.96
936.00	296.65
937.00	287.92
938.00	280.65
939.00	274.04
940.00	269.25
941.00	255.25
942.00	256.08
943.00	250.80
944.00	251.42
945.00	246.98
946.00	239.53
947.00	239.78
948.00	250.47
949.00	240.36
950.00	244.30
951.00	242.80
952.00	244.97
953.00	242.15
954.00	248.06
955.00	247.96
956.00	247.44
957.00	244.07
958.00	246.23
959.00	241.98
960.00	250.63
961.00	247.44
962.00	245.54
963.00	240.53
964.00	246.30
965.00	243.27
966.00	245.16
967.00	239.95
968.00	241.98
969.00	240.15
970.00	242.68
971.00	242.64
972.00	238.81
973.00	237.66
974.00	240.23
975.00	235.95
976.00	241.12
977.00	236.57
978.00	233.58
979.00	230.99
980.00	234.21
981.00	226.95
982.00	231.56
983.00	228.74
984.00	226.26
985.00	226.52
986.00	230.66
987.00	229.23
988.00	226.72
989.00	222.54
990.00	224.14
991.00	227.41
992.00	223.47
993.00	223.62
994.00	222.97
995.00	219.32
996.00	219.20
997.00	223.27
998.00	222.66
999.00	216.41
1000.00	217.83
>>>>>End Processed Spectral Data<<<<<
