SpectraSuite Data File
++++++++++++++++++++++++++++++++++++
Date: Thu Oct 13 11:16:26 CDT 2011
User: Helimak
Dark Spectrum Present: No
Reference Spectrum Present: No
Number of Sampled Component Spectra: 1
Spectrometers: USB2G37154
Integration Time (usec): 20000 (USB2G37154)
Spectra Averaged: 1 (USB2G37154)
Boxcar Smoothing: 0 (USB2G37154)
Correct for Electrical Dark: No (USB2G37154)
Strobe/Lamp Enabled: No (USB2G37154)
Correct for Detector Non-linearity: No (USB2G37154)
Correct for Stray Light: No (USB2G37154)
Number of Pixels in Processed Spectrum: 651
>>>>>Begin Processed Spectral Data<<<<<
350.00	209.02
351.00	208.80
352.00	207.97
353.00	208.79
354.00	213.38
355.00	211.02
356.00	207.63
357.00	211.59
358.00	206.05
359.00	210.09
360.00	204.83
361.00	207.89
362.00	213.28
363.00	209.26
364.00	211.38
365.00	209.82
366.00	207.82
367.00	215.09
368.00	213.76
369.00	213.27
370.00	214.05
371.00	209.76
372.00	216.76
373.00	213.83
374.00	210.90
375.00	214.00
376.00	215.46
377.00	218.02
378.00	220.11
379.00	221.01
380.00	216.02
381.00	218.68
382.00	220.21
383.00	223.05
384.00	227.83
385.00	221.64
386.00	225.90
387.00	229.58
388.00	228.73
389.00	230.38
390.00	229.78
391.00	237.89
392.00	235.39
393.00	236.64
394.00	240.68
395.00	232.57
396.00	240.93
397.00	244.87
398.00	243.71
399.00	250.36
400.00	248.07
401.00	255.75
402.00	258.56
403.00	263.25
404.00	265.18
405.00	272.74
406.00	274.00
407.00	275.27
408.00	278.14
409.00	283.73
410.00	285.15
411.00	279.42
412.00	283.38
413.00	285.91
414.00	291.09
415.00	290.59
416.00	295.79
417.00	299.65
418.00	300.56
419.00	308.39
420.00	315.30
421.00	318.77
422.00	326.49
423.00	329.62
424.00	337.49
425.00	345.31
426.00	357.29
427.00	369.88
428.00	372.34
429.00	374.50
430.00	374.18
431.00	387.16
432.00	388.03
433.00	387.96
434.00	393.95
435.00	412.44
436.00	397.42
437.00	401.12
438.00	404.66
439.00	410.46
440.00	413.64
441.00	410.67
442.00	420.66
443.00	426.50
444.00	433.96
445.00	431.80
446.00	438.45
447.00	460.29
448.00	464.86
449.00	477.07
450.00	490.99
451.00	507.45
452.00	519.28
453.00	534.92
454.00	547.45
455.00	560.15
456.00	589.55
457.00	587.71
458.00	592.54
459.00	601.70
460.00	618.37
461.00	614.10
462.00	633.35
463.00	622.84
464.00	618.86
465.00	632.48
466.00	630.41
467.00	638.51
468.00	649.01
469.00	642.01
470.00	649.85
471.00	656.68
472.00	679.79
473.00	678.46
474.00	695.94
475.00	715.95
476.00	738.06
477.00	763.82
478.00	776.55
479.00	802.15
480.00	820.25
481.00	868.22
482.00	878.94
483.00	918.16
484.00	973.83
485.00	1003.15
486.00	1047.64
487.00	1082.32
488.00	1129.73
489.00	1167.69
490.00	1192.12
491.00	1244.27
492.00	1295.01
493.00	1310.25
494.00	1346.45
495.00	1373.37
496.00	1379.81
497.00	1415.30
498.00	1427.98
499.00	1433.93
500.00	1446.27
501.00	1449.22
502.00	1483.99
503.00	1456.06
504.00	1475.86
505.00	1473.06
506.00	1497.99
507.00	1500.25
508.00	1497.63
509.00	1508.72
510.00	1522.96
511.00	1555.00
512.00	1565.23
513.00	1552.33
514.00	1573.89
515.00	1613.22
516.00	1620.01
517.00	1635.85
518.00	1685.81
519.00	1720.92
520.00	1755.40
521.00	1801.66
522.00	1842.12
523.00	1857.95
524.00	1891.91
525.00	1941.32
526.00	1997.33
527.00	2023.61
528.00	2104.47
529.00	2170.61
530.00	2201.25
531.00	2272.57
532.00	2313.74
533.00	2346.89
534.00	2405.69
535.00	2433.94
536.00	2450.05
537.00	2503.24
538.00	2543.06
539.00	2563.53
540.00	2559.41
541.00	2619.82
542.00	2617.36
543.00	2608.61
544.00	2666.11
545.00	2634.16
546.00	2665.79
547.00	2630.43
548.00	2631.57
549.00	2645.98
550.00	2648.65
551.00	2617.95
552.00	2625.79
553.00	2653.48
554.00	2678.88
555.00	2704.21
556.00	2667.72
557.00	2714.10
558.00	2717.24
559.00	2730.78
560.00	2767.56
561.00	2795.03
562.00	2835.27
563.00	2836.58
564.00	2869.08
565.00	2898.29
566.00	2966.62
567.00	2991.36
568.00	2982.72
569.00	3020.24
570.00	3064.13
571.00	3091.13
572.00	3127.58
573.00	3186.94
574.00	3224.47
575.00	3253.09
576.00	3301.59
577.00	3329.91
578.00	3376.87
579.00	3423.34
580.00	3463.35
581.00	3452.29
582.00	3463.73
583.00	3503.18
584.00	3533.09
585.00	3526.87
586.00	3580.35
587.00	3567.45
588.00	3543.76
589.00	3562.11
590.00	3559.69
591.00	3573.87
592.00	3575.86
593.00	3568.40
594.00	3579.92
595.00	3558.63
596.00	3539.25
597.00	3543.51
598.00	3527.65
599.00	3560.70
600.00	3553.77
601.00	3522.72
602.00	3518.79
603.00	3508.74
604.00	3520.93
605.00	3511.89
606.00	3533.85
607.00	3506.35
608.00	3511.65
609.00	3541.13
610.00	3520.66
611.00	3563.29
612.00	3567.83
613.00	3552.88
614.00	3572.86
615.00	3595.00
616.00	3592.89
617.00	3599.89
618.00	3599.88
619.00	3654.56
620.00	3661.73
621.00	3686.19
622.00	3705.67
623.00	3709.59
624.00	3734.50
625.00	3758.80
626.00	3729.58
627.00	3800.66
628.00	3818.01
629.00	3802.16
630.00	3838.56
631.00	3867.80
632.00	3882.69
633.00	3831.66
634.00	3872.89
635.00	3858.26
636.00	3902.76
637.00	3864.80
638.00	3878.31
639.00	3844.08
640.00	3876.86
641.00	3842.35
642.00	3842.69
643.00	3857.45
644.00	3825.56
645.00	3798.04
646.00	3771.37
647.00	3755.71
648.00	3738.43
649.00	3683.87
650.00	3698.82
651.00	3670.11
652.00	3640.21
653.00	3604.32
654.00	3590.23
655.00	3580.60
656.00	3554.21
657.00	3516.00
658.00	3488.00
659.00	3467.22
660.00	3468.38
661.00	3452.72
662.00	3427.64
663.00	3462.64
664.00	3375.29
665.00	3343.96
666.00	3330.74
667.00	3360.96
668.00	3275.03
669.00	3281.95
670.00	3290.15
671.00	3277.45
672.00	3250.71
673.00	3267.48
674.00	3272.55
675.00	3197.85
676.00	3251.88
677.00	3226.22
678.00	3255.42
679.00	3219.55
680.00	3216.02
681.00	3182.01
682.00	3215.92
683.00	3230.34
684.00	3218.95
685.00	3198.75
686.00	3204.39
687.00	3207.85
688.00	3200.12
689.00	3248.59
690.00	3222.10
691.00	3221.01
692.00	3237.89
693.00	3259.51
694.00	3242.14
695.00	3264.06
696.00	3257.00
697.00	3261.48
698.00	3219.48
699.00	3232.98
700.00	3241.75
701.00	3208.86
702.00	3271.81
703.00	3252.82
704.00	3201.79
705.00	3253.22
706.00	3176.02
707.00	3180.27
708.00	3215.23
709.00	3183.63
710.00	3164.32
711.00	3132.99
712.00	3131.22
713.00	3135.20
714.00	3094.22
715.00	3078.17
716.00	3028.24
717.00	3003.81
718.00	2972.60
719.00	2901.18
720.00	2864.34
721.00	2836.54
722.00	2773.63
723.00	2766.90
724.00	2727.41
725.00	2722.33
726.00	2699.72
727.00	2649.88
728.00	2663.22
729.00	2585.06
730.00	2618.19
731.00	2572.90
732.00	2581.93
733.00	2548.03
734.00	2509.15
735.00	2541.94
736.00	2475.45
737.00	2412.70
738.00	2455.60
739.00	2400.93
740.00	2419.75
741.00	2405.85
742.00	2316.09
743.00	2322.85
744.00	2314.50
745.00	2287.26
746.00	2253.66
747.00	2233.29
748.00	2240.75
749.00	2182.71
750.00	2148.06
751.00	2174.49
752.00	2164.12
753.00	2174.10
754.00	2132.63
755.00	2118.34
756.00	2097.50
757.00	2073.33
758.00	2041.91
759.00	2090.93
760.00	2043.98
761.00	2025.31
762.00	2020.65
763.00	1987.06
764.00	1958.06
765.00	1964.07
766.00	1957.81
767.00	1958.85
768.00	1925.40
769.00	1925.79
770.00	1911.72
771.00	1915.49
772.00	1909.55
773.00	1904.93
774.00	1865.95
775.00	1839.23
776.00	1831.47
777.00	1847.56
778.00	1813.03
779.00	1779.05
780.00	1797.48
781.00	1774.85
782.00	1782.51
783.00	1785.42
784.00	1781.18
785.00	1796.28
786.00	1805.43
787.00	1778.93
788.00	1833.59
789.00	1821.95
790.00	1834.69
791.00	1831.42
792.00	1845.86
793.00	1856.96
794.00	1867.29
795.00	1848.92
796.00	1878.92
797.00	1849.87
798.00	1881.81
799.00	1850.65
800.00	1861.47
801.00	1834.70
802.00	1843.45
803.00	1812.02
804.00	1826.93
805.00	1795.47
806.00	1786.29
807.00	1769.54
808.00	1772.54
809.00	1764.40
810.00	1734.71
811.00	1744.67
812.00	1723.14
813.00	1702.50
814.00	1656.54
815.00	1644.58
816.00	1630.79
817.00	1587.03
818.00	1605.70
819.00	1545.97
820.00	1549.48
821.00	1544.37
822.00	1521.00
823.00	1494.57
824.00	1479.96
825.00	1446.57
826.00	1412.00
827.00	1406.54
828.00	1375.06
829.00	1355.02
830.00	1341.66
831.00	1319.69
832.00	1308.73
833.00	1304.33
834.00	1276.14
835.00	1276.41
836.00	1240.48
837.00	1234.57
838.00	1190.77
839.00	1186.30
840.00	1176.86
841.00	1166.63
842.00	1153.54
843.00	1125.57
844.00	1116.32
845.00	1111.38
846.00	1088.98
847.00	1073.66
848.00	1058.46
849.00	1045.33
850.00	1030.78
851.00	1023.92
852.00	1007.75
853.00	1003.00
854.00	968.03
855.00	940.67
856.00	959.34
857.00	951.05
858.00	941.25
859.00	927.55
860.00	916.87
861.00	923.93
862.00	912.41
863.00	889.42
864.00	857.63
865.00	857.61
866.00	859.12
867.00	857.40
868.00	843.94
869.00	821.37
870.00	821.91
871.00	810.94
872.00	799.03
873.00	787.87
874.00	769.55
875.00	762.92
876.00	754.40
877.00	751.08
878.00	739.25
879.00	724.87
880.00	712.71
881.00	727.64
882.00	709.92
883.00	705.36
884.00	703.03
885.00	674.83
886.00	678.82
887.00	667.49
888.00	680.06
889.00	659.20
890.00	639.93
891.00	647.13
892.00	637.29
893.00	650.97
894.00	650.60
895.00	643.25
896.00	644.75
897.00	634.22
898.00	645.11
899.00	648.34
900.00	637.70
901.00	633.62
902.00	635.17
903.00	635.50
904.00	629.43
905.00	635.09
906.00	643.72
907.00	643.41
908.00	630.07
909.00	633.15
910.00	622.07
911.00	629.34
912.00	622.02
913.00	624.30
914.00	617.46
915.00	627.89
916.00	619.89
917.00	605.48
918.00	594.56
919.00	606.24
920.00	604.05
921.00	597.48
922.00	580.59
923.00	575.29
924.00	562.05
925.00	557.45
926.00	551.97
927.00	540.84
928.00	526.08
929.00	528.00
930.00	514.25
931.00	501.88
932.00	485.43
933.00	486.25
934.00	469.54
935.00	459.14
936.00	436.82
937.00	422.81
938.00	409.09
939.00	389.36
940.00	368.82
941.00	352.61
942.00	338.96
943.00	328.14
944.00	316.88
945.00	312.73
946.00	309.70
947.00	310.13
948.00	303.82
949.00	312.31
950.00	305.94
951.00	310.65
952.00	318.05
953.00	310.21
954.00	312.66
955.00	312.37
956.00	318.36
957.00	313.68
958.00	315.08
959.00	318.98
960.00	316.78
961.00	314.43
962.00	316.34
963.00	314.68
964.00	312.81
965.00	309.25
966.00	302.50
967.00	303.95
968.00	301.96
969.00	300.50
970.00	300.79
971.00	296.01
972.00	295.61
973.00	294.64
974.00	293.91
975.00	287.79
976.00	284.78
977.00	285.92
978.00	289.59
979.00	278.26
980.00	279.72
981.00	276.84
982.00	273.37
983.00	272.69
984.00	264.36
985.00	272.86
986.00	262.78
987.00	265.84
988.00	262.23
989.00	259.40
990.00	261.09
991.00	253.80
992.00	254.98
993.00	245.75
994.00	250.30
995.00	249.16
996.00	249.30
997.00	245.91
998.00	240.82
999.00	240.55
1000.00	238.19
>>>>>End Processed Spectral Data<<<<<
