SpectraSuite Data File
++++++++++++++++++++++++++++++++++++
Date: Thu Oct 13 11:31:38 CDT 2011
User: Helimak
Dark Spectrum Present: No
Reference Spectrum Present: No
Number of Sampled Component Spectra: 1
Spectrometers: USB2G37154
Integration Time (usec): 20000 (USB2G37154)
Spectra Averaged: 1 (USB2G37154)
Boxcar Smoothing: 0 (USB2G37154)
Correct for Electrical Dark: No (USB2G37154)
Strobe/Lamp Enabled: No (USB2G37154)
Correct for Detector Non-linearity: No (USB2G37154)
Correct for Stray Light: No (USB2G37154)
Number of Pixels in Processed Spectrum: 651
>>>>>Begin Processed Spectral Data<<<<<
350.00	202.94
351.00	200.05
352.00	200.55
353.00	200.75
354.00	207.80
355.00	202.29
356.00	201.56
357.00	205.72
358.00	202.28
359.00	200.58
360.00	202.20
361.00	201.36
362.00	205.50
363.00	206.37
364.00	206.19
365.00	202.26
366.00	205.61
367.00	209.03
368.00	205.26
369.00	208.64
370.00	204.97
371.00	212.06
372.00	205.75
373.00	207.86
374.00	205.90
375.00	204.23
376.00	205.51
377.00	209.03
378.00	207.84
379.00	204.60
380.00	208.60
381.00	206.85
382.00	211.04
383.00	208.06
384.00	209.13
385.00	207.67
386.00	212.02
387.00	214.44
388.00	209.82
389.00	212.09
390.00	214.31
391.00	212.06
392.00	216.32
393.00	209.51
394.00	209.75
395.00	212.74
396.00	216.94
397.00	218.77
398.00	215.47
399.00	215.85
400.00	215.57
401.00	217.66
402.00	220.19
403.00	219.25
404.00	223.34
405.00	221.98
406.00	221.99
407.00	218.51
408.00	221.06
409.00	222.38
410.00	223.27
411.00	220.77
412.00	223.12
413.00	222.01
414.00	220.66
415.00	220.97
416.00	226.76
417.00	221.65
418.00	225.40
419.00	225.46
420.00	228.91
421.00	228.48
422.00	229.64
423.00	233.07
424.00	231.13
425.00	234.62
426.00	234.34
427.00	237.95
428.00	235.79
429.00	237.50
430.00	247.04
431.00	240.67
432.00	238.71
433.00	239.61
434.00	247.96
435.00	241.82
436.00	238.83
437.00	244.12
438.00	239.08
439.00	244.77
440.00	244.23
441.00	241.55
442.00	244.67
443.00	245.61
444.00	251.93
445.00	251.02
446.00	244.73
447.00	255.59
448.00	256.96
449.00	257.01
450.00	254.31
451.00	255.91
452.00	261.26
453.00	263.61
454.00	264.31
455.00	268.71
456.00	272.64
457.00	272.37
458.00	274.94
459.00	281.52
460.00	274.40
461.00	277.44
462.00	278.28
463.00	278.44
464.00	275.82
465.00	274.69
466.00	280.31
467.00	280.34
468.00	273.00
469.00	284.40
470.00	283.28
471.00	284.73
472.00	281.13
473.00	285.39
474.00	289.66
475.00	290.91
476.00	291.74
477.00	299.44
478.00	294.46
479.00	303.58
480.00	306.03
481.00	306.68
482.00	315.48
483.00	314.75
484.00	324.42
485.00	326.79
486.00	340.51
487.00	337.85
488.00	341.61
489.00	350.89
490.00	351.81
491.00	363.71
492.00	367.87
493.00	370.04
494.00	376.46
495.00	384.77
496.00	376.16
497.00	377.27
498.00	383.42
499.00	382.65
500.00	383.84
501.00	380.63
502.00	380.00
503.00	379.09
504.00	380.75
505.00	386.61
506.00	383.61
507.00	381.64
508.00	381.26
509.00	385.02
510.00	380.76
511.00	392.92
512.00	389.26
513.00	391.88
514.00	396.11
515.00	396.86
516.00	402.66
517.00	394.08
518.00	410.74
519.00	402.82
520.00	417.01
521.00	412.38
522.00	415.58
523.00	425.24
524.00	440.62
525.00	440.05
526.00	441.39
527.00	445.47
528.00	449.24
529.00	463.66
530.00	460.15
531.00	457.34
532.00	464.48
533.00	468.84
534.00	475.05
535.00	479.84
536.00	485.19
537.00	492.54
538.00	488.33
539.00	492.55
540.00	502.24
541.00	506.92
542.00	508.03
543.00	499.66
544.00	505.25
545.00	503.20
546.00	503.62
547.00	495.41
548.00	492.70
549.00	504.12
550.00	500.18
551.00	501.00
552.00	497.26
553.00	487.53
554.00	500.04
555.00	497.06
556.00	495.69
557.00	488.33
558.00	507.14
559.00	501.96
560.00	502.36
561.00	504.96
562.00	501.80
563.00	507.96
564.00	515.55
565.00	508.92
566.00	516.96
567.00	518.13
568.00	518.56
569.00	524.03
570.00	525.79
571.00	537.20
572.00	545.11
573.00	540.41
574.00	548.48
575.00	554.56
576.00	547.96
577.00	552.41
578.00	561.40
579.00	559.47
580.00	570.60
581.00	579.75
582.00	576.55
583.00	573.90
584.00	583.16
585.00	566.42
586.00	574.14
587.00	583.68
588.00	580.31
589.00	578.98
590.00	585.51
591.00	585.60
592.00	584.14
593.00	582.95
594.00	573.02
595.00	587.38
596.00	571.15
597.00	575.61
598.00	571.74
599.00	581.97
600.00	575.50
601.00	569.36
602.00	562.11
603.00	576.74
604.00	576.19
605.00	575.62
606.00	570.63
607.00	573.17
608.00	568.31
609.00	568.07
610.00	567.82
611.00	573.13
612.00	573.97
613.00	580.48
614.00	589.42
615.00	585.37
616.00	588.97
617.00	589.01
618.00	586.77
619.00	592.59
620.00	589.65
621.00	595.55
622.00	595.40
623.00	598.80
624.00	604.44
625.00	604.00
626.00	606.43
627.00	609.45
628.00	614.48
629.00	610.49
630.00	608.20
631.00	620.35
632.00	613.82
633.00	614.13
634.00	623.20
635.00	620.98
636.00	619.36
637.00	613.89
638.00	624.65
639.00	617.20
640.00	623.82
641.00	621.68
642.00	628.74
643.00	624.80
644.00	620.28
645.00	616.50
646.00	604.22
647.00	614.34
648.00	609.10
649.00	609.69
650.00	603.17
651.00	601.85
652.00	600.63
653.00	608.87
654.00	590.22
655.00	591.80
656.00	599.10
657.00	587.57
658.00	589.01
659.00	580.93
660.00	591.83
661.00	583.32
662.00	578.01
663.00	581.24
664.00	575.29
665.00	571.62
666.00	577.78
667.00	570.97
668.00	562.03
669.00	571.26
670.00	579.51
671.00	573.95
672.00	578.45
673.00	563.95
674.00	557.73
675.00	571.86
676.00	573.11
677.00	565.94
678.00	567.92
679.00	563.17
680.00	567.97
681.00	570.43
682.00	567.17
683.00	562.43
684.00	569.54
685.00	576.63
686.00	571.06
687.00	560.96
688.00	565.11
689.00	573.77
690.00	574.44
691.00	573.17
692.00	578.88
693.00	582.80
694.00	577.45
695.00	580.22
696.00	577.00
697.00	581.32
698.00	585.31
699.00	590.32
700.00	585.17
701.00	582.06
702.00	596.17
703.00	590.21
704.00	585.64
705.00	595.17
706.00	585.43
707.00	576.81
708.00	593.17
709.00	586.30
710.00	578.28
711.00	592.01
712.00	591.29
713.00	582.80
714.00	579.43
715.00	583.18
716.00	568.29
717.00	568.95
718.00	564.40
719.00	562.47
720.00	561.32
721.00	561.90
722.00	546.43
723.00	558.87
724.00	546.69
725.00	551.99
726.00	540.58
727.00	534.38
728.00	541.58
729.00	535.83
730.00	530.47
731.00	524.01
732.00	534.33
733.00	539.38
734.00	526.99
735.00	528.75
736.00	526.70
737.00	512.97
738.00	524.70
739.00	519.69
740.00	524.07
741.00	522.29
742.00	521.04
743.00	512.90
744.00	514.88
745.00	519.43
746.00	510.59
747.00	501.28
748.00	506.61
749.00	493.45
750.00	498.50
751.00	510.85
752.00	508.54
753.00	503.42
754.00	507.09
755.00	505.41
756.00	502.15
757.00	503.44
758.00	514.05
759.00	518.02
760.00	505.79
761.00	508.10
762.00	510.01
763.00	501.10
764.00	501.97
765.00	510.94
766.00	508.65
767.00	511.92
768.00	498.26
769.00	507.19
770.00	517.35
771.00	508.30
772.00	515.96
773.00	506.20
774.00	513.63
775.00	513.30
776.00	508.39
777.00	511.10
778.00	507.02
779.00	502.41
780.00	504.12
781.00	515.55
782.00	512.44
783.00	515.66
784.00	522.15
785.00	524.64
786.00	528.27
787.00	534.31
788.00	533.02
789.00	542.01
790.00	547.62
791.00	550.48
792.00	553.16
793.00	559.31
794.00	569.29
795.00	564.84
796.00	570.75
797.00	572.11
798.00	575.17
799.00	576.56
800.00	576.63
801.00	574.57
802.00	581.47
803.00	579.51
804.00	595.99
805.00	579.50
806.00	590.56
807.00	587.20
808.00	588.68
809.00	580.30
810.00	577.00
811.00	585.41
812.00	581.21
813.00	586.30
814.00	569.01
815.00	562.20
816.00	568.10
817.00	571.79
818.00	560.84
819.00	558.82
820.00	566.82
821.00	558.27
822.00	551.31
823.00	555.91
824.00	563.01
825.00	546.63
826.00	546.41
827.00	538.63
828.00	543.85
829.00	532.39
830.00	533.75
831.00	530.70
832.00	523.55
833.00	532.19
834.00	533.51
835.00	525.38
836.00	517.78
837.00	513.56
838.00	517.04
839.00	504.24
840.00	509.58
841.00	497.63
842.00	498.64
843.00	503.28
844.00	502.43
845.00	501.61
846.00	492.32
847.00	485.76
848.00	483.26
849.00	490.59
850.00	489.97
851.00	485.76
852.00	485.87
853.00	466.03
854.00	472.70
855.00	477.39
856.00	472.08
857.00	477.75
858.00	469.11
859.00	474.98
860.00	464.41
861.00	461.01
862.00	466.12
863.00	455.45
864.00	458.70
865.00	455.89
866.00	456.47
867.00	452.94
868.00	452.04
869.00	449.66
870.00	444.35
871.00	445.15
872.00	441.39
873.00	442.03
874.00	433.26
875.00	432.91
876.00	432.77
877.00	430.34
878.00	428.56
879.00	433.89
880.00	425.24
881.00	424.31
882.00	427.21
883.00	418.12
884.00	421.00
885.00	425.33
886.00	427.04
887.00	413.09
888.00	414.51
889.00	411.89
890.00	413.18
891.00	411.29
892.00	418.99
893.00	417.37
894.00	418.61
895.00	418.76
896.00	419.84
897.00	416.71
898.00	429.97
899.00	419.97
900.00	420.49
901.00	423.97
902.00	430.70
903.00	438.63
904.00	426.67
905.00	424.04
906.00	440.15
907.00	434.95
908.00	443.15
909.00	435.56
910.00	448.01
911.00	446.03
912.00	447.84
913.00	440.59
914.00	441.27
915.00	436.30
916.00	436.18
917.00	437.77
918.00	438.02
919.00	433.66
920.00	436.41
921.00	426.33
922.00	431.54
923.00	423.75
924.00	427.77
925.00	411.52
926.00	412.01
927.00	411.80
928.00	407.02
929.00	405.57
930.00	398.42
931.00	399.52
932.00	391.76
933.00	386.59
934.00	378.01
935.00	373.27
936.00	360.63
937.00	345.89
938.00	337.92
939.00	320.59
940.00	311.17
941.00	300.78
942.00	294.02
943.00	286.19
944.00	285.70
945.00	280.38
946.00	278.36
947.00	278.00
948.00	280.95
949.00	279.21
950.00	274.55
951.00	281.00
952.00	278.95
953.00	282.09
954.00	286.65
955.00	284.34
956.00	281.93
957.00	284.97
958.00	285.33
959.00	289.01
960.00	287.90
961.00	288.06
962.00	287.86
963.00	287.92
964.00	284.05
965.00	283.31
966.00	286.70
967.00	286.79
968.00	281.98
969.00	284.78
970.00	279.44
971.00	275.39
972.00	283.90
973.00	275.24
974.00	272.76
975.00	274.48
976.00	273.80
977.00	267.77
978.00	268.39
979.00	262.66
980.00	261.66
981.00	263.68
982.00	257.58
983.00	253.21
984.00	259.03
985.00	261.08
986.00	258.02
987.00	252.89
988.00	250.65
989.00	252.69
990.00	249.43
991.00	247.05
992.00	246.36
993.00	243.29
994.00	241.47
995.00	242.37
996.00	235.94
997.00	239.80
998.00	239.98
999.00	235.67
1000.00	233.07
>>>>>End Processed Spectral Data<<<<<
