SpectraSuite Data File
++++++++++++++++++++++++++++++++++++
Date: Thu Oct 13 11:16:26 CDT 2011
User: Helimak
Dark Spectrum Present: No
Reference Spectrum Present: No
Number of Sampled Component Spectra: 1
Spectrometers: USB2G37154
Integration Time (usec): 20000 (USB2G37154)
Spectra Averaged: 1 (USB2G37154)
Boxcar Smoothing: 0 (USB2G37154)
Correct for Electrical Dark: No (USB2G37154)
Strobe/Lamp Enabled: No (USB2G37154)
Correct for Detector Non-linearity: No (USB2G37154)
Correct for Stray Light: No (USB2G37154)
Number of Pixels in Processed Spectrum: 651
>>>>>Begin Processed Spectral Data<<<<<
350.00	210.24
351.00	208.74
352.00	209.96
353.00	207.35
354.00	208.67
355.00	205.92
356.00	205.28
357.00	197.67
358.00	206.71
359.00	208.05
360.00	211.13
361.00	214.05
362.00	210.68
363.00	205.12
364.00	205.30
365.00	211.15
366.00	213.52
367.00	211.07
368.00	210.41
369.00	212.96
370.00	210.05
371.00	215.09
372.00	214.51
373.00	209.14
374.00	217.48
375.00	215.68
376.00	210.64
377.00	217.02
378.00	215.22
379.00	212.77
380.00	220.00
381.00	220.74
382.00	219.87
383.00	222.98
384.00	227.22
385.00	224.33
386.00	224.99
387.00	227.75
388.00	231.99
389.00	230.40
390.00	234.59
391.00	235.68
392.00	233.27
393.00	238.73
394.00	237.92
395.00	239.73
396.00	243.86
397.00	245.07
398.00	247.36
399.00	249.84
400.00	252.83
401.00	255.93
402.00	262.02
403.00	262.08
404.00	270.27
405.00	269.74
406.00	280.02
407.00	283.22
408.00	280.31
409.00	286.23
410.00	283.20
411.00	285.01
412.00	288.19
413.00	292.05
414.00	292.28
415.00	293.31
416.00	300.38
417.00	299.32
418.00	299.33
419.00	312.03
420.00	321.06
421.00	321.94
422.00	338.45
423.00	328.69
424.00	345.61
425.00	350.97
426.00	361.84
427.00	374.04
428.00	373.78
429.00	387.70
430.00	388.79
431.00	389.25
432.00	396.27
433.00	396.74
434.00	397.15
435.00	404.49
436.00	406.37
437.00	408.67
438.00	399.13
439.00	413.55
440.00	421.01
441.00	429.74
442.00	423.60
443.00	425.39
444.00	447.03
445.00	436.11
446.00	449.47
447.00	466.78
448.00	469.82
449.00	474.98
450.00	495.60
451.00	510.17
452.00	533.03
453.00	550.73
454.00	556.15
455.00	561.54
456.00	594.97
457.00	614.44
458.00	617.12
459.00	625.17
460.00	629.91
461.00	624.30
462.00	632.34
463.00	634.52
464.00	640.61
465.00	649.69
466.00	645.94
467.00	639.26
468.00	657.53
469.00	653.19
470.00	655.95
471.00	683.69
472.00	679.63
473.00	683.62
474.00	714.76
475.00	721.09
476.00	747.38
477.00	771.41
478.00	796.54
479.00	812.24
480.00	842.86
481.00	897.88
482.00	902.50
483.00	934.66
484.00	965.79
485.00	1025.12
486.00	1066.07
487.00	1100.02
488.00	1152.89
489.00	1210.65
490.00	1218.88
491.00	1265.75
492.00	1311.39
493.00	1340.31
494.00	1392.04
495.00	1389.06
496.00	1410.73
497.00	1449.35
498.00	1440.44
499.00	1461.56
500.00	1464.19
501.00	1487.53
502.00	1490.01
503.00	1467.40
504.00	1505.23
505.00	1500.73
506.00	1509.71
507.00	1525.50
508.00	1529.70
509.00	1529.39
510.00	1545.81
511.00	1553.02
512.00	1578.16
513.00	1588.12
514.00	1625.70
515.00	1650.03
516.00	1671.64
517.00	1672.68
518.00	1719.25
519.00	1758.05
520.00	1794.98
521.00	1839.90
522.00	1875.91
523.00	1897.88
524.00	1950.26
525.00	1984.13
526.00	2028.42
527.00	2100.37
528.00	2147.85
529.00	2184.56
530.00	2242.64
531.00	2307.41
532.00	2364.19
533.00	2389.92
534.00	2422.01
535.00	2487.75
536.00	2510.15
537.00	2555.57
538.00	2589.87
539.00	2611.80
540.00	2613.25
541.00	2678.74
542.00	2682.01
543.00	2684.80
544.00	2710.14
545.00	2707.54
546.00	2696.64
547.00	2677.37
548.00	2661.19
549.00	2702.23
550.00	2681.40
551.00	2697.10
552.00	2696.97
553.00	2688.83
554.00	2710.91
555.00	2738.62
556.00	2761.26
557.00	2758.08
558.00	2786.06
559.00	2772.20
560.00	2824.44
561.00	2831.97
562.00	2886.07
563.00	2880.76
564.00	2919.51
565.00	2976.76
566.00	3008.04
567.00	3026.10
568.00	3028.63
569.00	3066.20
570.00	3118.96
571.00	3142.75
572.00	3187.93
573.00	3233.45
574.00	3274.77
575.00	3296.16
576.00	3344.88
577.00	3371.22
578.00	3403.14
579.00	3469.35
580.00	3501.77
581.00	3531.32
582.00	3508.48
583.00	3584.94
584.00	3598.89
585.00	3567.49
586.00	3604.68
587.00	3612.42
588.00	3620.05
589.00	3660.52
590.00	3611.81
591.00	3618.65
592.00	3629.58
593.00	3634.14
594.00	3652.83
595.00	3687.14
596.00	3606.07
597.00	3614.26
598.00	3596.56
599.00	3600.82
600.00	3593.71
601.00	3566.82
602.00	3564.42
603.00	3591.84
604.00	3595.83
605.00	3564.26
606.00	3598.35
607.00	3605.67
608.00	3571.47
609.00	3599.87
610.00	3607.38
611.00	3592.51
612.00	3610.88
613.00	3631.55
614.00	3648.90
615.00	3647.29
616.00	3634.21
617.00	3668.90
618.00	3689.19
619.00	3695.29
620.00	3683.93
621.00	3760.77
622.00	3759.10
623.00	3790.64
624.00	3790.96
625.00	3823.09
626.00	3801.82
627.00	3844.21
628.00	3841.26
629.00	3871.11
630.00	3935.57
631.00	3945.52
632.00	3902.30
633.00	3875.18
634.00	3907.32
635.00	3927.55
636.00	3937.11
637.00	3939.78
638.00	3940.10
639.00	3914.99
640.00	3946.05
641.00	3939.02
642.00	3925.11
643.00	3896.91
644.00	3842.04
645.00	3888.98
646.00	3815.02
647.00	3841.97
648.00	3773.13
649.00	3760.81
650.00	3743.90
651.00	3742.64
652.00	3714.48
653.00	3646.39
654.00	3643.80
655.00	3614.25
656.00	3585.78
657.00	3583.93
658.00	3546.01
659.00	3521.51
660.00	3507.51
661.00	3494.12
662.00	3466.54
663.00	3495.45
664.00	3433.19
665.00	3387.48
666.00	3381.84
667.00	3379.15
668.00	3360.04
669.00	3351.29
670.00	3334.79
671.00	3335.30
672.00	3305.76
673.00	3311.07
674.00	3291.52
675.00	3292.66
676.00	3294.94
677.00	3288.52
678.00	3290.74
679.00	3267.63
680.00	3277.07
681.00	3272.17
682.00	3248.33
683.00	3248.58
684.00	3257.70
685.00	3249.94
686.00	3229.45
687.00	3239.12
688.00	3257.84
689.00	3265.36
690.00	3276.41
691.00	3306.83
692.00	3259.88
693.00	3296.66
694.00	3305.29
695.00	3329.55
696.00	3300.01
697.00	3300.11
698.00	3287.19
699.00	3297.41
700.00	3286.50
701.00	3265.93
702.00	3316.39
703.00	3292.42
704.00	3268.61
705.00	3280.84
706.00	3224.67
707.00	3208.60
708.00	3236.70
709.00	3229.63
710.00	3231.06
711.00	3206.28
712.00	3197.42
713.00	3141.55
714.00	3105.19
715.00	3123.80
716.00	3072.26
717.00	3043.53
718.00	3017.76
719.00	2990.55
720.00	2894.45
721.00	2894.39
722.00	2852.14
723.00	2814.66
724.00	2785.53
725.00	2740.99
726.00	2711.99
727.00	2677.20
728.00	2662.37
729.00	2651.26
730.00	2624.55
731.00	2594.23
732.00	2599.70
733.00	2585.25
734.00	2529.60
735.00	2534.99
736.00	2503.35
737.00	2457.79
738.00	2484.53
739.00	2453.68
740.00	2466.99
741.00	2408.91
742.00	2350.99
743.00	2354.37
744.00	2327.75
745.00	2284.25
746.00	2267.30
747.00	2299.67
748.00	2265.94
749.00	2231.97
750.00	2187.34
751.00	2193.93
752.00	2181.28
753.00	2189.06
754.00	2152.39
755.00	2131.75
756.00	2091.76
757.00	2114.00
758.00	2085.76
759.00	2116.38
760.00	2054.45
761.00	2069.46
762.00	2029.30
763.00	1987.41
764.00	1970.99
765.00	2006.46
766.00	1980.24
767.00	1973.37
768.00	1940.13
769.00	1938.02
770.00	1929.62
771.00	1917.34
772.00	1920.02
773.00	1905.68
774.00	1892.49
775.00	1884.46
776.00	1860.94
777.00	1865.21
778.00	1809.03
779.00	1813.64
780.00	1831.14
781.00	1813.50
782.00	1803.90
783.00	1827.12
784.00	1805.20
785.00	1828.11
786.00	1829.79
787.00	1808.72
788.00	1863.77
789.00	1866.98
790.00	1854.65
791.00	1853.88
792.00	1861.56
793.00	1884.50
794.00	1900.23
795.00	1880.78
796.00	1919.12
797.00	1871.92
798.00	1909.93
799.00	1880.72
800.00	1880.13
801.00	1881.69
802.00	1867.60
803.00	1832.11
804.00	1839.15
805.00	1809.09
806.00	1821.22
807.00	1826.81
808.00	1819.09
809.00	1783.69
810.00	1754.32
811.00	1739.89
812.00	1740.06
813.00	1713.69
814.00	1681.09
815.00	1680.93
816.00	1673.94
817.00	1623.12
818.00	1630.21
819.00	1561.94
820.00	1550.10
821.00	1572.54
822.00	1540.61
823.00	1530.97
824.00	1489.07
825.00	1466.25
826.00	1426.85
827.00	1417.92
828.00	1414.30
829.00	1383.47
830.00	1378.10
831.00	1325.55
832.00	1317.72
833.00	1295.38
834.00	1294.71
835.00	1271.00
836.00	1246.73
837.00	1231.11
838.00	1216.49
839.00	1209.59
840.00	1170.52
841.00	1167.46
842.00	1169.60
843.00	1140.62
844.00	1139.08
845.00	1110.77
846.00	1102.54
847.00	1076.17
848.00	1083.62
849.00	1060.30
850.00	1051.12
851.00	1035.75
852.00	1022.10
853.00	1003.14
854.00	991.49
855.00	954.17
856.00	947.14
857.00	952.12
858.00	945.03
859.00	950.72
860.00	932.46
861.00	920.00
862.00	907.46
863.00	903.03
864.00	877.69
865.00	865.18
866.00	850.68
867.00	862.13
868.00	854.94
869.00	829.08
870.00	829.80
871.00	815.25
872.00	804.73
873.00	789.77
874.00	772.80
875.00	771.50
876.00	755.19
877.00	764.90
878.00	744.98
879.00	736.23
880.00	720.96
881.00	724.93
882.00	709.53
883.00	708.48
884.00	706.02
885.00	686.74
886.00	690.91
887.00	684.59
888.00	666.21
889.00	661.28
890.00	661.13
891.00	653.30
892.00	641.62
893.00	656.14
894.00	659.74
895.00	653.72
896.00	642.72
897.00	647.11
898.00	645.71
899.00	644.69
900.00	636.43
901.00	637.11
902.00	634.35
903.00	637.44
904.00	635.61
905.00	648.03
906.00	634.41
907.00	637.16
908.00	643.51
909.00	636.72
910.00	634.01
911.00	634.23
912.00	628.39
913.00	627.62
914.00	639.68
915.00	624.96
916.00	631.64
917.00	614.35
918.00	615.45
919.00	599.78
920.00	586.62
921.00	592.57
922.00	576.14
923.00	581.98
924.00	574.55
925.00	552.49
926.00	550.00
927.00	542.96
928.00	533.97
929.00	528.18
930.00	512.00
931.00	501.13
932.00	508.26
933.00	481.76
934.00	467.20
935.00	452.50
936.00	449.16
937.00	419.68
938.00	405.27
939.00	399.19
940.00	365.88
941.00	355.70
942.00	340.07
943.00	328.50
944.00	324.24
945.00	311.30
946.00	310.79
947.00	310.10
948.00	311.13
949.00	309.30
950.00	304.35
951.00	310.95
952.00	311.97
953.00	310.12
954.00	311.63
955.00	309.67
956.00	314.68
957.00	314.68
958.00	307.79
959.00	315.96
960.00	320.02
961.00	317.43
962.00	317.52
963.00	312.03
964.00	305.48
965.00	310.17
966.00	310.49
967.00	307.86
968.00	302.99
969.00	312.28
970.00	301.47
971.00	304.24
972.00	299.43
973.00	293.70
974.00	291.71
975.00	292.46
976.00	282.52
977.00	286.31
978.00	282.28
979.00	283.27
980.00	278.02
981.00	274.90
982.00	272.10
983.00	274.53
984.00	267.21
985.00	267.46
986.00	271.35
987.00	259.24
988.00	261.10
989.00	262.71
990.00	254.69
991.00	252.60
992.00	250.36
993.00	249.51
994.00	250.33
995.00	250.40
996.00	249.75
997.00	245.69
998.00	249.40
999.00	243.90
1000.00	237.53
>>>>>End Processed Spectral Data<<<<<
