SpectraSuite Data File
++++++++++++++++++++++++++++++++++++
Date: Thu Oct 13 11:16:26 CDT 2011
User: Helimak
Dark Spectrum Present: No
Reference Spectrum Present: No
Number of Sampled Component Spectra: 1
Spectrometers: USB2G37154
Integration Time (usec): 20000 (USB2G37154)
Spectra Averaged: 1 (USB2G37154)
Boxcar Smoothing: 0 (USB2G37154)
Correct for Electrical Dark: No (USB2G37154)
Strobe/Lamp Enabled: No (USB2G37154)
Correct for Detector Non-linearity: No (USB2G37154)
Correct for Stray Light: No (USB2G37154)
Number of Pixels in Processed Spectrum: 651
>>>>>Begin Processed Spectral Data<<<<<
350.00	211.33
351.00	209.17
352.00	202.28
353.00	209.30
354.00	211.16
355.00	210.23
356.00	212.92
357.00	211.03
358.00	208.12
359.00	208.86
360.00	211.07
361.00	205.58
362.00	214.31
363.00	212.85
364.00	208.13
365.00	208.78
366.00	208.97
367.00	211.94
368.00	210.76
369.00	210.81
370.00	211.01
371.00	215.54
372.00	212.66
373.00	212.88
374.00	206.97
375.00	214.79
376.00	216.85
377.00	214.71
378.00	217.08
379.00	220.77
380.00	219.85
381.00	217.39
382.00	222.14
383.00	223.92
384.00	225.27
385.00	223.33
386.00	224.04
387.00	222.12
388.00	229.55
389.00	233.02
390.00	234.18
391.00	234.59
392.00	235.47
393.00	232.53
394.00	238.92
395.00	238.49
396.00	239.03
397.00	240.33
398.00	243.37
399.00	249.47
400.00	253.47
401.00	255.09
402.00	257.67
403.00	264.22
404.00	263.13
405.00	268.62
406.00	278.01
407.00	278.59
408.00	275.91
409.00	278.44
410.00	283.91
411.00	282.93
412.00	290.01
413.00	295.84
414.00	289.64
415.00	288.80
416.00	288.08
417.00	301.91
418.00	302.24
419.00	305.51
420.00	313.75
421.00	313.62
422.00	323.15
423.00	324.59
424.00	342.74
425.00	346.36
426.00	356.66
427.00	365.68
428.00	374.62
429.00	377.63
430.00	384.90
431.00	387.09
432.00	393.52
433.00	393.15
434.00	384.09
435.00	392.78
436.00	398.86
437.00	408.29
438.00	402.40
439.00	406.28
440.00	414.39
441.00	412.97
442.00	415.79
443.00	421.50
444.00	430.60
445.00	444.04
446.00	445.27
447.00	458.93
448.00	464.78
449.00	480.93
450.00	492.06
451.00	500.84
452.00	518.87
453.00	525.12
454.00	542.40
455.00	564.21
456.00	573.25
457.00	594.36
458.00	600.83
459.00	601.71
460.00	620.37
461.00	615.82
462.00	628.37
463.00	622.33
464.00	621.56
465.00	625.27
466.00	630.47
467.00	643.92
468.00	645.30
469.00	644.87
470.00	642.89
471.00	648.20
472.00	683.38
473.00	681.57
474.00	714.11
475.00	708.79
476.00	731.31
477.00	759.35
478.00	779.81
479.00	792.84
480.00	817.72
481.00	861.73
482.00	891.51
483.00	930.21
484.00	959.13
485.00	1002.44
486.00	1049.09
487.00	1081.56
488.00	1117.03
489.00	1160.41
490.00	1194.52
491.00	1220.11
492.00	1276.40
493.00	1305.46
494.00	1327.01
495.00	1371.29
496.00	1378.84
497.00	1396.47
498.00	1418.07
499.00	1437.97
500.00	1430.59
501.00	1447.51
502.00	1473.98
503.00	1448.68
504.00	1469.14
505.00	1481.21
506.00	1457.53
507.00	1494.51
508.00	1486.31
509.00	1509.55
510.00	1530.09
511.00	1538.05
512.00	1562.37
513.00	1575.68
514.00	1594.37
515.00	1617.32
516.00	1620.19
517.00	1647.80
518.00	1680.80
519.00	1724.02
520.00	1744.00
521.00	1783.85
522.00	1814.45
523.00	1860.66
524.00	1912.38
525.00	1940.36
526.00	1989.75
527.00	2032.53
528.00	2092.34
529.00	2159.93
530.00	2192.86
531.00	2242.69
532.00	2309.07
533.00	2323.21
534.00	2396.02
535.00	2418.27
536.00	2478.40
537.00	2492.91
538.00	2538.31
539.00	2548.60
540.00	2577.17
541.00	2612.22
542.00	2620.24
543.00	2618.37
544.00	2632.04
545.00	2632.48
546.00	2631.68
547.00	2648.35
548.00	2630.22
549.00	2638.38
550.00	2626.40
551.00	2629.73
552.00	2639.27
553.00	2648.15
554.00	2647.29
555.00	2675.17
556.00	2693.88
557.00	2686.47
558.00	2719.65
559.00	2729.09
560.00	2745.27
561.00	2767.92
562.00	2825.74
563.00	2836.86
564.00	2847.03
565.00	2880.02
566.00	2932.24
567.00	2960.60
568.00	2966.22
569.00	2995.58
570.00	3037.87
571.00	3099.42
572.00	3129.08
573.00	3187.22
574.00	3175.23
575.00	3195.11
576.00	3291.74
577.00	3309.79
578.00	3334.98
579.00	3398.51
580.00	3434.53
581.00	3445.04
582.00	3446.23
583.00	3523.83
584.00	3545.36
585.00	3521.03
586.00	3546.65
587.00	3540.73
588.00	3537.97
589.00	3566.74
590.00	3552.61
591.00	3544.96
592.00	3583.01
593.00	3560.02
594.00	3551.06
595.00	3558.69
596.00	3543.49
597.00	3527.60
598.00	3542.33
599.00	3545.84
600.00	3525.78
601.00	3534.83
602.00	3501.86
603.00	3524.12
604.00	3529.60
605.00	3531.95
606.00	3510.79
607.00	3536.74
608.00	3522.40
609.00	3513.14
610.00	3519.94
611.00	3547.65
612.00	3566.69
613.00	3543.77
614.00	3588.37
615.00	3575.99
616.00	3588.92
617.00	3603.05
618.00	3616.78
619.00	3614.97
620.00	3635.46
621.00	3678.53
622.00	3679.04
623.00	3714.83
624.00	3720.81
625.00	3731.10
626.00	3730.69
627.00	3786.23
628.00	3795.67
629.00	3810.81
630.00	3841.73
631.00	3855.01
632.00	3861.87
633.00	3800.02
634.00	3843.02
635.00	3874.11
636.00	3889.41
637.00	3879.51
638.00	3900.16
639.00	3857.41
640.00	3890.33
641.00	3855.79
642.00	3838.08
643.00	3830.32
644.00	3804.03
645.00	3796.55
646.00	3765.54
647.00	3754.29
648.00	3718.53
649.00	3703.23
650.00	3685.06
651.00	3649.11
652.00	3627.83
653.00	3586.09
654.00	3596.42
655.00	3549.24
656.00	3531.15
657.00	3504.25
658.00	3492.96
659.00	3448.80
660.00	3458.39
661.00	3407.50
662.00	3405.32
663.00	3426.48
664.00	3394.24
665.00	3335.68
666.00	3332.95
667.00	3328.39
668.00	3298.49
669.00	3265.07
670.00	3286.07
671.00	3294.38
672.00	3250.40
673.00	3277.16
674.00	3264.97
675.00	3230.15
676.00	3232.19
677.00	3230.77
678.00	3228.52
679.00	3222.55
680.00	3237.13
681.00	3219.47
682.00	3185.83
683.00	3201.66
684.00	3220.90
685.00	3196.99
686.00	3183.56
687.00	3169.31
688.00	3187.83
689.00	3192.43
690.00	3245.81
691.00	3225.98
692.00	3205.43
693.00	3233.76
694.00	3211.06
695.00	3227.42
696.00	3267.00
697.00	3246.62
698.00	3244.91
699.00	3259.08
700.00	3248.78
701.00	3250.75
702.00	3252.19
703.00	3242.72
704.00	3203.14
705.00	3219.88
706.00	3190.86
707.00	3154.04
708.00	3186.46
709.00	3168.80
710.00	3187.60
711.00	3134.67
712.00	3122.70
713.00	3094.00
714.00	3065.61
715.00	3060.18
716.00	3029.62
717.00	2992.23
718.00	2968.53
719.00	2919.51
720.00	2846.81
721.00	2860.48
722.00	2786.55
723.00	2765.68
724.00	2724.55
725.00	2713.60
726.00	2661.86
727.00	2656.35
728.00	2625.57
729.00	2595.14
730.00	2583.38
731.00	2575.97
732.00	2582.94
733.00	2527.91
734.00	2502.48
735.00	2508.15
736.00	2472.38
737.00	2432.50
738.00	2433.06
739.00	2409.16
740.00	2419.75
741.00	2355.39
742.00	2314.87
743.00	2310.29
744.00	2292.84
745.00	2269.60
746.00	2257.82
747.00	2264.25
748.00	2201.20
749.00	2204.69
750.00	2144.53
751.00	2185.21
752.00	2139.63
753.00	2158.11
754.00	2134.64
755.00	2097.08
756.00	2066.76
757.00	2079.24
758.00	2028.46
759.00	2061.06
760.00	2020.80
761.00	2026.87
762.00	2014.41
763.00	1962.68
764.00	1966.91
765.00	1968.06
766.00	1956.52
767.00	1937.29
768.00	1941.78
769.00	1929.51
770.00	1893.89
771.00	1908.64
772.00	1903.11
773.00	1870.16
774.00	1843.25
775.00	1854.05
776.00	1839.68
777.00	1827.02
778.00	1797.10
779.00	1812.32
780.00	1776.86
781.00	1808.76
782.00	1797.92
783.00	1782.03
784.00	1772.20
785.00	1804.29
786.00	1804.21
787.00	1787.45
788.00	1806.54
789.00	1830.02
790.00	1835.74
791.00	1825.52
792.00	1816.78
793.00	1852.02
794.00	1851.01
795.00	1863.98
796.00	1863.99
797.00	1853.02
798.00	1890.54
799.00	1872.32
800.00	1851.95
801.00	1832.68
802.00	1820.55
803.00	1815.44
804.00	1800.89
805.00	1797.49
806.00	1791.46
807.00	1795.85
808.00	1759.21
809.00	1772.75
810.00	1753.36
811.00	1728.48
812.00	1696.40
813.00	1674.28
814.00	1652.45
815.00	1648.04
816.00	1622.76
817.00	1593.61
818.00	1592.35
819.00	1553.26
820.00	1536.24
821.00	1533.73
822.00	1521.18
823.00	1490.39
824.00	1458.61
825.00	1431.61
826.00	1424.85
827.00	1397.07
828.00	1402.42
829.00	1365.77
830.00	1328.53
831.00	1333.61
832.00	1301.34
833.00	1268.36
834.00	1271.30
835.00	1259.58
836.00	1239.16
837.00	1212.85
838.00	1192.58
839.00	1193.53
840.00	1169.68
841.00	1158.62
842.00	1147.22
843.00	1113.47
844.00	1121.23
845.00	1100.48
846.00	1074.48
847.00	1054.36
848.00	1058.04
849.00	1036.93
850.00	1042.86
851.00	1018.41
852.00	1006.49
853.00	988.88
854.00	965.83
855.00	965.02
856.00	938.36
857.00	939.54
858.00	936.38
859.00	932.83
860.00	917.17
861.00	913.28
862.00	908.05
863.00	887.04
864.00	867.54
865.00	854.23
866.00	836.24
867.00	858.72
868.00	844.95
869.00	829.15
870.00	814.17
871.00	800.94
872.00	809.43
873.00	790.97
874.00	773.26
875.00	768.82
876.00	755.56
877.00	757.85
878.00	727.49
879.00	731.65
880.00	713.02
881.00	717.83
882.00	711.94
883.00	708.82
884.00	695.99
885.00	686.54
886.00	682.65
887.00	666.30
888.00	666.55
889.00	662.30
890.00	649.59
891.00	644.71
892.00	645.70
893.00	650.53
894.00	644.92
895.00	652.36
896.00	642.81
897.00	642.81
898.00	641.66
899.00	629.63
900.00	621.26
901.00	639.10
902.00	639.42
903.00	639.83
904.00	624.38
905.00	639.72
906.00	632.58
907.00	633.66
908.00	635.22
909.00	637.46
910.00	618.67
911.00	618.91
912.00	628.70
913.00	629.40
914.00	632.21
915.00	625.09
916.00	619.87
917.00	611.01
918.00	596.92
919.00	593.83
920.00	579.61
921.00	585.29
922.00	587.86
923.00	578.16
924.00	578.57
925.00	554.19
926.00	544.98
927.00	546.31
928.00	533.57
929.00	527.59
930.00	520.38
931.00	505.42
932.00	487.41
933.00	480.06
934.00	470.70
935.00	455.16
936.00	442.49
937.00	424.29
938.00	404.08
939.00	394.91
940.00	360.51
941.00	345.81
942.00	327.12
943.00	324.67
944.00	312.81
945.00	315.37
946.00	315.15
947.00	310.03
948.00	309.73
949.00	306.03
950.00	307.27
951.00	316.05
952.00	306.03
953.00	311.99
954.00	305.57
955.00	315.79
956.00	312.34
957.00	314.30
958.00	317.85
959.00	319.97
960.00	315.00
961.00	318.01
962.00	313.35
963.00	307.73
964.00	306.39
965.00	311.86
966.00	305.98
967.00	304.46
968.00	309.99
969.00	303.10
970.00	303.49
971.00	300.33
972.00	300.13
973.00	293.44
974.00	292.02
975.00	292.81
976.00	285.88
977.00	287.16
978.00	281.94
979.00	278.59
980.00	283.62
981.00	276.15
982.00	275.64
983.00	274.48
984.00	267.50
985.00	268.52
986.00	266.81
987.00	261.78
988.00	256.14
989.00	261.83
990.00	260.76
991.00	251.02
992.00	253.72
993.00	254.48
994.00	248.41
995.00	248.19
996.00	247.47
997.00	241.69
998.00	243.79
999.00	240.41
1000.00	243.05
>>>>>End Processed Spectral Data<<<<<
