SpectraSuite Data File
++++++++++++++++++++++++++++++++++++
Date: Thu Oct 13 11:28:16 CDT 2011
User: Helimak
Dark Spectrum Present: No
Reference Spectrum Present: No
Number of Sampled Component Spectra: 1
Spectrometers: USB2G37154
Integration Time (usec): 20000 (USB2G37154)
Spectra Averaged: 1 (USB2G37154)
Boxcar Smoothing: 0 (USB2G37154)
Correct for Electrical Dark: No (USB2G37154)
Strobe/Lamp Enabled: No (USB2G37154)
Correct for Detector Non-linearity: No (USB2G37154)
Correct for Stray Light: No (USB2G37154)
Number of Pixels in Processed Spectrum: 651
>>>>>Begin Processed Spectral Data<<<<<
350.00	203.07
351.00	204.71
352.00	204.71
353.00	202.64
354.00	208.92
355.00	203.81
356.00	205.27
357.00	200.93
358.00	202.68
359.00	202.30
360.00	204.75
361.00	203.93
362.00	205.22
363.00	201.91
364.00	205.39
365.00	203.01
366.00	207.92
367.00	206.02
368.00	204.82
369.00	202.93
370.00	203.01
371.00	207.66
372.00	205.55
373.00	204.93
374.00	206.87
375.00	203.94
376.00	203.51
377.00	206.92
378.00	205.56
379.00	209.22
380.00	205.28
381.00	208.09
382.00	208.34
383.00	211.86
384.00	206.37
385.00	208.56
386.00	209.09
387.00	204.93
388.00	208.62
389.00	207.97
390.00	208.42
391.00	208.90
392.00	211.12
393.00	214.39
394.00	211.09
395.00	208.04
396.00	212.96
397.00	212.62
398.00	212.85
399.00	210.16
400.00	222.97
401.00	212.85
402.00	215.24
403.00	218.63
404.00	214.30
405.00	218.19
406.00	219.01
407.00	218.74
408.00	217.15
409.00	215.77
410.00	215.52
411.00	222.64
412.00	218.75
413.00	218.24
414.00	218.31
415.00	220.03
416.00	219.08
417.00	218.54
418.00	222.95
419.00	222.55
420.00	226.12
421.00	224.17
422.00	226.33
423.00	226.21
424.00	230.11
425.00	232.44
426.00	233.82
427.00	238.14
428.00	234.27
429.00	237.50
430.00	238.66
431.00	238.03
432.00	238.97
433.00	240.89
434.00	238.10
435.00	243.43
436.00	243.13
437.00	241.76
438.00	244.25
439.00	240.89
440.00	246.99
441.00	251.10
442.00	247.36
443.00	248.29
444.00	245.54
445.00	247.91
446.00	249.71
447.00	253.87
448.00	254.10
449.00	256.05
450.00	256.63
451.00	265.23
452.00	265.85
453.00	266.01
454.00	271.16
455.00	280.93
456.00	277.06
457.00	281.01
458.00	283.61
459.00	292.32
460.00	280.52
461.00	284.66
462.00	285.50
463.00	293.64
464.00	294.42
465.00	290.25
466.00	288.55
467.00	295.62
468.00	290.20
469.00	293.91
470.00	293.57
471.00	294.26
472.00	294.18
473.00	293.09
474.00	299.85
475.00	299.07
476.00	303.25
477.00	310.39
478.00	316.32
479.00	318.41
480.00	332.90
481.00	329.13
482.00	338.79
483.00	341.88
484.00	354.11
485.00	358.18
486.00	371.95
487.00	377.30
488.00	384.09
489.00	394.87
490.00	397.91
491.00	404.29
492.00	408.50
493.00	424.86
494.00	431.67
495.00	436.11
496.00	431.20
497.00	445.31
498.00	440.28
499.00	437.22
500.00	444.89
501.00	453.63
502.00	447.99
503.00	454.35
504.00	458.03
505.00	455.75
506.00	464.32
507.00	461.55
508.00	460.13
509.00	462.39
510.00	462.47
511.00	473.03
512.00	469.20
513.00	478.47
514.00	480.35
515.00	488.25
516.00	478.78
517.00	489.41
518.00	491.26
519.00	508.72
520.00	512.48
521.00	518.51
522.00	521.48
523.00	540.49
524.00	551.15
525.00	548.02
526.00	563.95
527.00	570.37
528.00	580.35
529.00	605.07
530.00	602.27
531.00	615.19
532.00	626.24
533.00	629.85
534.00	631.30
535.00	645.25
536.00	662.36
537.00	678.89
538.00	671.54
539.00	674.36
540.00	678.60
541.00	701.13
542.00	706.57
543.00	695.15
544.00	705.30
545.00	702.55
546.00	706.77
547.00	700.98
548.00	700.19
549.00	710.08
550.00	702.53
551.00	705.05
552.00	704.76
553.00	709.40
554.00	711.43
555.00	730.81
556.00	715.64
557.00	716.34
558.00	727.60
559.00	729.00
560.00	725.39
561.00	736.57
562.00	740.86
563.00	753.09
564.00	759.97
565.00	764.76
566.00	777.31
567.00	766.28
568.00	786.57
569.00	804.59
570.00	795.52
571.00	823.93
572.00	826.16
573.00	835.57
574.00	839.91
575.00	850.03
576.00	861.76
577.00	873.71
578.00	874.10
579.00	890.04
580.00	905.53
581.00	896.81
582.00	911.19
583.00	936.30
584.00	935.26
585.00	913.85
586.00	925.86
587.00	927.78
588.00	938.87
589.00	923.91
590.00	940.96
591.00	925.98
592.00	950.35
593.00	934.59
594.00	940.98
595.00	937.21
596.00	934.57
597.00	923.09
598.00	932.78
599.00	935.80
600.00	921.34
601.00	925.23
602.00	925.49
603.00	935.51
604.00	928.27
605.00	926.77
606.00	934.82
607.00	933.38
608.00	935.48
609.00	924.02
610.00	943.09
611.00	962.61
612.00	956.30
613.00	957.48
614.00	946.89
615.00	948.81
616.00	958.93
617.00	960.98
618.00	961.33
619.00	976.76
620.00	979.46
621.00	978.39
622.00	984.84
623.00	991.19
624.00	986.83
625.00	998.50
626.00	1000.41
627.00	1014.20
628.00	1010.49
629.00	1019.88
630.00	1022.49
631.00	1039.19
632.00	1031.31
633.00	1038.81
634.00	1022.61
635.00	1017.81
636.00	1031.69
637.00	1043.45
638.00	1030.36
639.00	1028.85
640.00	1040.97
641.00	1024.98
642.00	1024.01
643.00	1019.70
644.00	1001.32
645.00	1027.24
646.00	1027.67
647.00	1005.74
648.00	1007.03
649.00	1005.24
650.00	998.53
651.00	972.94
652.00	995.88
653.00	983.22
654.00	963.14
655.00	971.68
656.00	948.54
657.00	945.41
658.00	960.99
659.00	931.66
660.00	941.85
661.00	940.02
662.00	919.49
663.00	928.74
664.00	927.64
665.00	914.36
666.00	922.07
667.00	910.38
668.00	906.81
669.00	906.85
670.00	899.27
671.00	904.08
672.00	896.92
673.00	884.00
674.00	887.74
675.00	894.36
676.00	883.79
677.00	888.44
678.00	892.53
679.00	900.16
680.00	884.09
681.00	885.56
682.00	883.96
683.00	894.04
684.00	890.38
685.00	887.55
686.00	886.26
687.00	876.46
688.00	889.75
689.00	891.76
690.00	883.12
691.00	891.78
692.00	887.90
693.00	881.24
694.00	893.69
695.00	894.77
696.00	878.00
697.00	904.10
698.00	912.48
699.00	893.94
700.00	896.03
701.00	894.97
702.00	913.47
703.00	891.88
704.00	889.40
705.00	888.82
706.00	891.14
707.00	883.61
708.00	877.23
709.00	894.66
710.00	884.17
711.00	890.87
712.00	870.90
713.00	856.64
714.00	870.72
715.00	867.49
716.00	845.23
717.00	847.98
718.00	831.21
719.00	822.30
720.00	815.68
721.00	818.73
722.00	788.68
723.00	783.64
724.00	778.19
725.00	765.96
726.00	779.36
727.00	756.23
728.00	745.23
729.00	742.72
730.00	747.01
731.00	738.95
732.00	746.60
733.00	739.11
734.00	742.18
735.00	738.02
736.00	719.16
737.00	717.55
738.00	737.71
739.00	693.38
740.00	719.03
741.00	700.16
742.00	686.84
743.00	706.99
744.00	682.14
745.00	672.78
746.00	659.63
747.00	677.41
748.00	660.74
749.00	661.03
750.00	644.09
751.00	659.44
752.00	652.44
753.00	653.58
754.00	648.53
755.00	638.53
756.00	637.09
757.00	633.01
758.00	615.74
759.00	634.48
760.00	612.05
761.00	619.91
762.00	605.36
763.00	612.85
764.00	620.03
765.00	615.03
766.00	612.96
767.00	601.66
768.00	604.33
769.00	592.17
770.00	589.98
771.00	591.65
772.00	586.28
773.00	593.38
774.00	587.84
775.00	588.73
776.00	585.97
777.00	585.88
778.00	567.06
779.00	574.08
780.00	566.81
781.00	565.49
782.00	569.05
783.00	572.28
784.00	573.48
785.00	573.58
786.00	574.45
787.00	569.59
788.00	574.20
789.00	575.00
790.00	582.27
791.00	580.40
792.00	576.01
793.00	584.39
794.00	590.07
795.00	586.81
796.00	590.29
797.00	589.18
798.00	593.09
799.00	579.97
800.00	579.86
801.00	589.59
802.00	600.30
803.00	574.00
804.00	570.38
805.00	569.69
806.00	567.95
807.00	574.10
808.00	560.50
809.00	572.85
810.00	555.37
811.00	562.78
812.00	553.96
813.00	545.18
814.00	539.81
815.00	541.24
816.00	537.81
817.00	534.08
818.00	524.07
819.00	526.27
820.00	515.81
821.00	511.22
822.00	513.60
823.00	502.44
824.00	502.94
825.00	486.54
826.00	491.77
827.00	468.99
828.00	474.87
829.00	477.56
830.00	472.78
831.00	466.11
832.00	463.19
833.00	469.41
834.00	452.14
835.00	451.69
836.00	443.74
837.00	443.69
838.00	438.47
839.00	445.36
840.00	431.77
841.00	428.70
842.00	427.13
843.00	426.89
844.00	416.69
845.00	415.29
846.00	415.52
847.00	410.21
848.00	406.38
849.00	398.74
850.00	406.92
851.00	394.97
852.00	395.29
853.00	384.99
854.00	386.00
855.00	387.98
856.00	378.02
857.00	383.05
858.00	380.56
859.00	378.55
860.00	369.07
861.00	373.95
862.00	373.00
863.00	376.51
864.00	361.03
865.00	364.15
866.00	357.81
867.00	360.49
868.00	362.00
869.00	356.09
870.00	350.67
871.00	349.23
872.00	340.97
873.00	350.77
874.00	337.37
875.00	343.50
876.00	328.49
877.00	337.61
878.00	335.04
879.00	327.50
880.00	324.72
881.00	328.10
882.00	326.41
883.00	320.82
884.00	322.99
885.00	315.63
886.00	321.84
887.00	325.47
888.00	316.96
889.00	312.86
890.00	311.63
891.00	313.21
892.00	307.46
893.00	304.20
894.00	311.58
895.00	309.87
896.00	309.77
897.00	305.64
898.00	309.59
899.00	314.38
900.00	307.06
901.00	311.70
902.00	303.85
903.00	311.70
904.00	309.64
905.00	310.97
906.00	307.59
907.00	308.10
908.00	309.06
909.00	307.15
910.00	309.55
911.00	308.05
912.00	307.96
913.00	311.37
914.00	310.17
915.00	302.60
916.00	302.49
917.00	297.63
918.00	301.31
919.00	298.66
920.00	293.83
921.00	299.73
922.00	299.97
923.00	292.16
924.00	297.71
925.00	293.24
926.00	284.03
927.00	287.53
928.00	286.26
929.00	283.16
930.00	285.00
931.00	273.19
932.00	276.93
933.00	275.36
934.00	261.08
935.00	260.78
936.00	262.89
937.00	258.03
938.00	250.21
939.00	250.71
940.00	242.72
941.00	235.76
942.00	238.02
943.00	229.34
944.00	233.40
945.00	230.42
946.00	229.81
947.00	233.03
948.00	225.75
949.00	228.79
950.00	227.73
951.00	228.85
952.00	230.95
953.00	231.59
954.00	232.90
955.00	236.64
956.00	226.43
957.00	226.93
958.00	228.87
959.00	229.97
960.00	228.03
961.00	235.38
962.00	229.65
963.00	229.53
964.00	226.99
965.00	229.21
966.00	229.20
967.00	228.45
968.00	227.00
969.00	231.49
970.00	231.89
971.00	226.40
972.00	224.82
973.00	222.05
974.00	220.98
975.00	225.04
976.00	220.61
977.00	225.62
978.00	218.03
979.00	222.88
980.00	223.11
981.00	217.04
982.00	223.10
983.00	223.14
984.00	220.04
985.00	220.82
986.00	214.74
987.00	212.78
988.00	218.18
989.00	216.35
990.00	216.49
991.00	214.65
992.00	213.53
993.00	218.12
994.00	217.54
995.00	211.49
996.00	213.89
997.00	211.55
998.00	210.67
999.00	213.36
1000.00	212.88
>>>>>End Processed Spectral Data<<<<<
