SpectraSuite Data File
++++++++++++++++++++++++++++++++++++
Date: Tue Oct 18 14:47:30 CDT 2011
User: Helimak
Dark Spectrum Present: No
Reference Spectrum Present: No
Number of Sampled Component Spectra: 1
Spectrometers: USB2G37154
Integration Time (usec): 200000 (USB2G37154)
Spectra Averaged: 1 (USB2G37154)
Boxcar Smoothing: 0 (USB2G37154)
Correct for Electrical Dark: No (USB2G37154)
Strobe/Lamp Enabled: No (USB2G37154)
Correct for Detector Non-linearity: No (USB2G37154)
Correct for Stray Light: No (USB2G37154)
Number of Pixels in Processed Spectrum: 651
>>>>>Begin Processed Spectral Data<<<<<
350.00	201.82
351.00	202.19
352.00	205.39
353.00	202.88
354.00	208.84
355.00	204.24
356.00	209.33
357.00	210.35
358.00	208.18
359.00	207.58
360.00	207.61
361.00	203.55
362.00	210.50
363.00	209.34
364.00	209.76
365.00	208.55
366.00	212.56
367.00	207.84
368.00	207.88
369.00	211.92
370.00	213.02
371.00	214.55
372.00	217.53
373.00	213.01
374.00	213.40
375.00	219.62
376.00	220.44
377.00	228.24
378.00	231.40
379.00	230.64
380.00	233.36
381.00	230.60
382.00	231.69
383.00	242.77
384.00	245.12
385.00	249.81
386.00	246.05
387.00	248.17
388.00	238.25
389.00	233.62
390.00	236.59
391.00	242.29
392.00	255.10
393.00	248.86
394.00	251.73
395.00	240.12
396.00	244.01
397.00	240.53
398.00	239.39
399.00	253.54
400.00	280.56
401.00	305.06
402.00	296.40
403.00	313.41
404.00	325.55
405.00	293.33
406.00	328.06
407.00	341.77
408.00	282.90
409.00	292.17
410.00	298.47
411.00	264.21
412.00	276.51
413.00	268.15
414.00	264.53
415.00	353.39
416.00	316.14
417.00	292.81
418.00	330.75
419.00	505.88
420.00	405.83
421.00	294.67
422.00	346.69
423.00	315.09
424.00	295.73
425.00	440.42
426.00	542.96
427.00	553.90
428.00	395.79
429.00	361.95
430.00	335.39
431.00	301.38
432.00	381.37
433.00	495.04
434.00	1222.18
435.00	716.26
436.00	461.90
437.00	417.40
438.00	343.83
439.00	443.54
440.00	389.38
441.00	386.70
442.00	781.44
443.00	492.96
444.00	323.02
445.00	268.83
446.00	264.48
447.00	313.53
448.00	305.60
449.00	284.14
450.00	308.88
451.00	308.84
452.00	302.98
453.00	325.00
454.00	457.30
455.00	368.25
456.00	346.88
457.00	417.43
458.00	591.07
459.00	473.80
460.00	779.75
461.00	538.41
462.00	355.87
463.00	306.56
464.00	283.22
465.00	394.75
466.00	329.07
467.00	294.79
468.00	288.78
469.00	293.45
470.00	292.97
471.00	289.72
472.00	439.84
473.00	474.92
474.00	334.19
475.00	321.19
476.00	465.06
477.00	329.92
478.00	280.98
479.00	310.25
480.00	893.41
481.00	468.27
482.00	322.67
483.00	289.11
484.00	403.76
485.00	445.31
486.00	467.53
487.00	1167.74
488.00	923.95
489.00	494.64
490.00	362.42
491.00	326.46
492.00	331.79
493.00	357.33
494.00	309.54
495.00	302.86
496.00	436.40
497.00	347.00
498.00	300.38
499.00	300.89
500.00	406.70
501.00	480.39
502.00	356.06
503.00	307.49
504.00	347.49
505.00	388.61
506.00	415.68
507.00	381.78
508.00	369.12
509.00	339.03
510.00	312.33
511.00	306.08
512.00	301.46
513.00	319.02
514.00	440.58
515.00	359.80
516.00	329.09
517.00	299.44
518.00	344.13
519.00	316.90
520.00	289.33
521.00	291.35
522.00	296.96
523.00	285.91
524.00	287.35
525.00	305.10
526.00	298.25
527.00	281.58
528.00	283.88
529.00	282.02
530.00	284.02
531.00	279.96
532.00	296.73
533.00	308.10
534.00	313.37
535.00	325.09
536.00	320.81
537.00	312.05
538.00	304.68
539.00	303.84
540.00	297.96
541.00	299.79
542.00	312.91
543.00	305.56
544.00	312.18
545.00	330.53
546.00	321.49
547.00	331.96
548.00	313.59
549.00	392.07
550.00	369.63
551.00	331.93
552.00	312.81
553.00	308.09
554.00	294.34
555.00	339.67
556.00	360.05
557.00	320.94
558.00	286.53
559.00	287.16
560.00	318.54
561.00	297.40
562.00	276.67
563.00	269.89
564.00	280.23
565.00	318.07
566.00	300.89
567.00	300.15
568.00	303.14
569.00	307.89
570.00	294.18
571.00	287.12
572.00	265.79
573.00	277.41
574.00	293.95
575.00	270.49
576.00	261.52
577.00	286.21
578.00	274.41
579.00	270.33
580.00	271.39
581.00	262.09
582.00	250.96
583.00	276.28
584.00	262.34
585.00	262.40
586.00	271.54
587.00	272.13
588.00	304.79
589.00	325.15
590.00	277.87
591.00	286.91
592.00	273.72
593.00	287.29
594.00	275.07
595.00	255.70
596.00	246.49
597.00	263.13
598.00	265.56
599.00	280.39
600.00	279.84
601.00	284.37
602.00	291.17
603.00	493.26
604.00	417.07
605.00	332.99
606.00	311.91
607.00	265.97
608.00	253.55
609.00	251.06
610.00	281.18
611.00	343.73
612.00	318.41
613.00	268.50
614.00	269.75
615.00	274.89
616.00	278.32
617.00	350.85
618.00	286.74
619.00	268.20
620.00	257.42
621.00	289.71
622.00	270.39
623.00	251.09
624.00	285.27
625.00	288.34
626.00	274.09
627.00	265.97
628.00	260.25
629.00	268.93
630.00	283.08
631.00	284.66
632.00	252.52
633.00	245.67
634.00	235.95
635.00	234.95
636.00	240.80
637.00	252.01
638.00	248.07
639.00	249.47
640.00	261.70
641.00	276.52
642.00	306.10
643.00	257.44
644.00	253.48
645.00	254.29
646.00	255.96
647.00	250.25
648.00	250.41
649.00	248.68
650.00	234.80
651.00	234.85
652.00	237.86
653.00	239.87
654.00	250.10
655.00	241.91
656.00	477.62
657.00	427.60
658.00	304.98
659.00	246.92
660.00	241.96
661.00	240.93
662.00	223.57
663.00	224.08
664.00	290.38
665.00	288.58
666.00	242.93
667.00	240.06
668.00	259.84
669.00	257.22
670.00	236.89
671.00	227.70
672.00	230.07
673.00	235.98
674.00	234.10
675.00	306.29
676.00	321.14
677.00	249.74
678.00	232.87
679.00	227.79
680.00	225.39
681.00	226.04
682.00	228.95
683.00	227.00
684.00	228.43
685.00	226.57
686.00	221.28
687.00	279.63
688.00	264.98
689.00	256.00
690.00	233.75
691.00	221.43
692.00	220.23
693.00	232.23
694.00	269.42
695.00	258.19
696.00	310.02
697.00	572.71
698.00	321.14
699.00	256.82
700.00	240.11
701.00	232.22
702.00	233.32
703.00	294.62
704.00	281.06
705.00	239.57
706.00	232.35
707.00	449.00
708.00	305.59
709.00	247.46
710.00	221.69
711.00	231.03
712.00	223.91
713.00	220.69
714.00	221.46
715.00	247.23
716.00	239.94
717.00	229.42
718.00	212.17
719.00	217.52
720.00	218.27
721.00	230.44
722.00	226.04
723.00	223.49
724.00	225.06
725.00	244.00
726.00	222.87
727.00	250.28
728.00	283.14
729.00	237.49
730.00	225.31
731.00	226.61
732.00	233.73
733.00	215.51
734.00	222.08
735.00	227.88
736.00	249.33
737.00	267.69
738.00	362.80
739.00	533.39
740.00	325.35
741.00	245.16
742.00	226.02
743.00	228.10
744.00	237.19
745.00	231.32
746.00	213.73
747.00	217.16
748.00	215.51
749.00	222.59
750.00	340.16
751.00	1088.26
752.00	820.09
753.00	429.02
754.00	268.15
755.00	223.59
756.00	213.60
757.00	213.45
758.00	221.72
759.00	223.55
760.00	227.14
761.00	216.30
762.00	228.40
763.00	280.24
764.00	1815.09
765.00	853.59
766.00	423.54
767.00	255.41
768.00	218.06
769.00	213.51
770.00	209.79
771.00	208.49
772.00	239.24
773.00	545.47
774.00	337.69
775.00	262.52
776.00	214.44
777.00	233.71
778.00	395.99
779.00	275.91
780.00	234.04
781.00	215.00
782.00	212.59
783.00	209.61
784.00	211.37
785.00	215.22
786.00	217.16
787.00	217.30
788.00	218.21
789.00	223.94
790.00	233.51
791.00	221.20
792.00	219.63
793.00	216.24
794.00	214.73
795.00	439.43
796.00	458.29
797.00	294.43
798.00	246.18
799.00	218.58
800.00	215.78
801.00	422.19
802.00	703.02
803.00	434.28
804.00	284.13
805.00	237.38
806.00	218.79
807.00	211.01
808.00	215.89
809.00	221.27
810.00	239.12
811.00	667.96
812.00	3409.18
813.00	2024.05
814.00	783.22
815.00	415.01
816.00	232.69
817.00	216.64
818.00	217.53
819.00	211.66
820.00	206.39
821.00	212.91
822.00	216.71
823.00	209.20
824.00	205.67
825.00	219.14
826.00	210.33
827.00	363.21
828.00	282.16
829.00	238.70
830.00	219.50
831.00	206.02
832.00	211.53
833.00	209.14
834.00	211.91
835.00	211.51
836.00	207.56
837.00	207.96
838.00	207.99
839.00	209.85
840.00	215.34
841.00	325.62
842.00	393.77
843.00	705.17
844.00	449.30
845.00	313.06
846.00	263.11
847.00	220.89
848.00	209.57
849.00	205.93
850.00	208.97
851.00	206.49
852.00	217.35
853.00	324.17
854.00	244.33
855.00	220.41
856.00	217.57
857.00	206.93
858.00	210.55
859.00	209.01
860.00	206.62
861.00	217.46
862.00	209.07
863.00	211.39
864.00	208.79
865.00	207.86
866.00	208.52
867.00	215.90
868.00	222.00
869.00	210.71
870.00	210.09
871.00	207.57
872.00	208.89
873.00	212.89
874.00	203.48
875.00	207.34
876.00	209.08
877.00	205.32
878.00	210.77
879.00	204.28
880.00	208.90
881.00	207.27
882.00	207.73
883.00	205.12
884.00	204.00
885.00	205.84
886.00	209.60
887.00	207.81
888.00	202.29
889.00	209.78
890.00	204.57
891.00	204.04
892.00	204.69
893.00	204.36
894.00	201.66
895.00	207.98
896.00	205.55
897.00	202.90
898.00	205.18
899.00	203.13
900.00	207.42
901.00	202.78
902.00	202.13
903.00	213.81
904.00	203.98
905.00	204.15
906.00	207.45
907.00	204.53
908.00	204.61
909.00	206.43
910.00	206.34
911.00	207.03
912.00	233.74
913.00	429.67
914.00	332.02
915.00	277.57
916.00	244.95
917.00	223.87
918.00	204.20
919.00	208.93
920.00	206.32
921.00	206.40
922.00	210.06
923.00	244.74
924.00	229.00
925.00	221.41
926.00	212.00
927.00	210.48
928.00	204.67
929.00	204.59
930.00	204.02
931.00	205.64
932.00	211.12
933.00	202.04
934.00	207.30
935.00	201.26
936.00	205.46
937.00	201.97
938.00	204.63
939.00	204.19
940.00	204.38
941.00	206.35
942.00	209.03
943.00	205.61
944.00	201.61
945.00	209.62
946.00	203.97
947.00	205.03
948.00	202.64
949.00	201.67
950.00	199.33
951.00	201.66
952.00	202.98
953.00	203.87
954.00	205.54
955.00	208.50
956.00	207.46
957.00	203.23
958.00	202.30
959.00	204.98
960.00	203.22
961.00	204.24
962.00	200.88
963.00	207.07
964.00	203.77
965.00	201.81
966.00	209.01
967.00	215.86
968.00	210.98
969.00	208.92
970.00	209.58
971.00	207.52
972.00	200.31
973.00	209.66
974.00	205.12
975.00	204.27
976.00	206.10
977.00	206.99
978.00	207.21
979.00	206.62
980.00	199.67
981.00	206.67
982.00	207.19
983.00	206.17
984.00	203.19
985.00	203.97
986.00	203.17
987.00	202.38
988.00	203.22
989.00	206.34
990.00	202.52
991.00	205.94
992.00	208.98
993.00	203.73
994.00	203.13
995.00	204.49
996.00	204.94
997.00	202.26
998.00	198.36
999.00	200.02
1000.00	204.91
>>>>>End Processed Spectral Data<<<<<
