SpectraSuite Data File
++++++++++++++++++++++++++++++++++++
Date: Tue Oct 18 14:47:31 CDT 2011
User: Helimak
Dark Spectrum Present: No
Reference Spectrum Present: No
Number of Sampled Component Spectra: 1
Spectrometers: USB2G37154
Integration Time (usec): 200000 (USB2G37154)
Spectra Averaged: 1 (USB2G37154)
Boxcar Smoothing: 0 (USB2G37154)
Correct for Electrical Dark: No (USB2G37154)
Strobe/Lamp Enabled: No (USB2G37154)
Correct for Detector Non-linearity: No (USB2G37154)
Correct for Stray Light: No (USB2G37154)
Number of Pixels in Processed Spectrum: 651
>>>>>Begin Processed Spectral Data<<<<<
350.00	203.07
351.00	203.82
352.00	204.24
353.00	202.57
354.00	204.50
355.00	209.13
356.00	206.43
357.00	206.49
358.00	209.92
359.00	204.30
360.00	207.77
361.00	205.00
362.00	208.98
363.00	203.17
364.00	211.02
365.00	211.56
366.00	210.66
367.00	212.94
368.00	211.37
369.00	212.45
370.00	213.01
371.00	214.53
372.00	218.36
373.00	216.91
374.00	212.83
375.00	219.64
376.00	218.60
377.00	209.79
378.00	231.25
379.00	232.89
380.00	233.74
381.00	233.69
382.00	234.15
383.00	236.67
384.00	247.79
385.00	246.80
386.00	248.04
387.00	248.82
388.00	240.60
389.00	230.72
390.00	230.56
391.00	238.81
392.00	250.57
393.00	254.76
394.00	262.26
395.00	238.15
396.00	239.01
397.00	237.93
398.00	236.57
399.00	252.60
400.00	281.20
401.00	309.42
402.00	293.30
403.00	317.50
404.00	320.86
405.00	286.15
406.00	314.06
407.00	344.03
408.00	279.05
409.00	286.90
410.00	295.44
411.00	256.90
412.00	278.27
413.00	264.25
414.00	252.17
415.00	345.18
416.00	322.40
417.00	288.00
418.00	329.33
419.00	503.12
420.00	398.85
421.00	292.23
422.00	347.00
423.00	310.36
424.00	290.23
425.00	442.62
426.00	548.73
427.00	539.51
428.00	378.49
429.00	362.39
430.00	341.55
431.00	300.17
432.00	381.22
433.00	490.94
434.00	1207.26
435.00	711.26
436.00	457.12
437.00	419.06
438.00	348.66
439.00	449.31
440.00	398.78
441.00	379.75
442.00	766.44
443.00	484.56
444.00	315.05
445.00	264.99
446.00	264.69
447.00	311.89
448.00	298.41
449.00	277.10
450.00	309.99
451.00	304.72
452.00	302.33
453.00	333.62
454.00	452.59
455.00	363.33
456.00	346.81
457.00	413.40
458.00	595.39
459.00	469.54
460.00	777.48
461.00	544.06
462.00	360.51
463.00	310.47
464.00	290.97
465.00	387.61
466.00	330.46
467.00	291.10
468.00	284.06
469.00	294.08
470.00	293.81
471.00	292.56
472.00	435.35
473.00	472.50
474.00	338.89
475.00	318.74
476.00	471.05
477.00	333.19
478.00	279.68
479.00	307.94
480.00	891.16
481.00	461.61
482.00	325.75
483.00	285.91
484.00	409.14
485.00	449.87
486.00	462.99
487.00	1172.66
488.00	926.97
489.00	484.50
490.00	358.80
491.00	321.81
492.00	321.75
493.00	358.29
494.00	305.68
495.00	302.00
496.00	428.98
497.00	348.51
498.00	301.23
499.00	302.27
500.00	396.66
501.00	479.36
502.00	344.06
503.00	312.63
504.00	343.34
505.00	378.75
506.00	408.95
507.00	382.84
508.00	367.27
509.00	343.54
510.00	306.60
511.00	309.95
512.00	303.49
513.00	319.36
514.00	442.15
515.00	349.57
516.00	333.24
517.00	302.52
518.00	346.07
519.00	316.29
520.00	290.14
521.00	298.37
522.00	300.97
523.00	282.17
524.00	287.45
525.00	312.94
526.00	298.31
527.00	284.71
528.00	286.02
529.00	278.38
530.00	271.27
531.00	286.73
532.00	295.02
533.00	298.34
534.00	309.95
535.00	322.54
536.00	314.48
537.00	314.40
538.00	305.42
539.00	298.83
540.00	297.78
541.00	306.81
542.00	314.08
543.00	301.73
544.00	312.50
545.00	328.76
546.00	321.58
547.00	335.17
548.00	314.08
549.00	385.32
550.00	368.37
551.00	329.91
552.00	312.76
553.00	304.98
554.00	298.89
555.00	332.28
556.00	354.05
557.00	323.90
558.00	292.60
559.00	289.40
560.00	328.37
561.00	295.53
562.00	275.98
563.00	273.20
564.00	280.60
565.00	316.33
566.00	299.16
567.00	297.17
568.00	306.12
569.00	309.70
570.00	293.81
571.00	292.90
572.00	265.41
573.00	280.61
574.00	294.41
575.00	265.27
576.00	267.56
577.00	282.72
578.00	276.08
579.00	269.97
580.00	277.59
581.00	263.26
582.00	259.50
583.00	274.14
584.00	268.22
585.00	259.05
586.00	269.17
587.00	273.93
588.00	309.58
589.00	326.60
590.00	279.91
591.00	290.08
592.00	274.23
593.00	280.13
594.00	270.05
595.00	257.81
596.00	255.01
597.00	257.96
598.00	265.42
599.00	271.38
600.00	280.84
601.00	287.14
602.00	294.07
603.00	492.17
604.00	420.28
605.00	341.59
606.00	313.27
607.00	264.41
608.00	246.21
609.00	247.93
610.00	280.05
611.00	341.22
612.00	318.23
613.00	266.79
614.00	271.21
615.00	269.03
616.00	269.25
617.00	344.86
618.00	290.10
619.00	272.59
620.00	264.96
621.00	286.45
622.00	266.08
623.00	245.30
624.00	280.57
625.00	284.71
626.00	268.13
627.00	266.09
628.00	257.49
629.00	269.71
630.00	281.87
631.00	284.53
632.00	251.45
633.00	239.90
634.00	241.55
635.00	239.90
636.00	240.83
637.00	242.99
638.00	247.98
639.00	252.75
640.00	255.74
641.00	270.55
642.00	304.28
643.00	265.59
644.00	254.41
645.00	247.96
646.00	257.04
647.00	250.81
648.00	253.44
649.00	250.28
650.00	236.35
651.00	234.17
652.00	237.28
653.00	239.26
654.00	248.52
655.00	243.52
656.00	471.16
657.00	418.99
658.00	301.98
659.00	246.27
660.00	241.88
661.00	244.81
662.00	230.81
663.00	222.40
664.00	286.87
665.00	283.10
666.00	248.45
667.00	237.48
668.00	259.20
669.00	262.36
670.00	237.49
671.00	226.44
672.00	236.10
673.00	231.02
674.00	230.29
675.00	308.00
676.00	318.29
677.00	254.73
678.00	227.01
679.00	226.43
680.00	221.51
681.00	223.99
682.00	223.69
683.00	225.58
684.00	228.25
685.00	226.30
686.00	225.83
687.00	271.58
688.00	262.16
689.00	252.18
690.00	231.56
691.00	226.07
692.00	226.48
693.00	230.77
694.00	270.84
695.00	248.79
696.00	304.02
697.00	566.51
698.00	324.24
699.00	252.49
700.00	236.42
701.00	227.34
702.00	229.31
703.00	290.61
704.00	279.32
705.00	236.11
706.00	239.08
707.00	443.00
708.00	308.83
709.00	245.17
710.00	219.98
711.00	233.90
712.00	227.48
713.00	220.05
714.00	224.40
715.00	255.67
716.00	239.38
717.00	228.25
718.00	218.70
719.00	216.14
720.00	220.93
721.00	227.48
722.00	223.73
723.00	227.35
724.00	225.77
725.00	241.79
726.00	221.55
727.00	245.65
728.00	279.52
729.00	240.90
730.00	224.54
731.00	222.01
732.00	224.19
733.00	219.44
734.00	218.49
735.00	226.81
736.00	251.00
737.00	275.79
738.00	369.19
739.00	527.51
740.00	316.99
741.00	245.23
742.00	226.97
743.00	224.01
744.00	235.88
745.00	233.44
746.00	210.85
747.00	212.59
748.00	216.72
749.00	226.80
750.00	340.09
751.00	1096.19
752.00	820.88
753.00	428.52
754.00	264.25
755.00	222.47
756.00	212.11
757.00	214.34
758.00	219.67
759.00	223.03
760.00	217.84
761.00	222.60
762.00	219.30
763.00	279.72
764.00	1764.29
765.00	839.83
766.00	425.11
767.00	250.79
768.00	217.11
769.00	215.13
770.00	212.34
771.00	214.71
772.00	237.02
773.00	543.37
774.00	329.82
775.00	261.49
776.00	217.89
777.00	230.49
778.00	401.04
779.00	284.50
780.00	236.15
781.00	215.99
782.00	210.66
783.00	213.13
784.00	208.30
785.00	211.58
786.00	215.45
787.00	216.35
788.00	217.15
789.00	221.01
790.00	226.89
791.00	225.17
792.00	219.34
793.00	218.97
794.00	217.30
795.00	441.92
796.00	462.57
797.00	292.98
798.00	247.79
799.00	220.35
800.00	212.65
801.00	418.01
802.00	700.82
803.00	436.53
804.00	290.59
805.00	232.72
806.00	222.49
807.00	212.09
808.00	220.51
809.00	221.97
810.00	238.89
811.00	645.42
812.00	3366.17
813.00	2016.67
814.00	798.53
815.00	411.77
816.00	230.27
817.00	217.10
818.00	212.93
819.00	214.52
820.00	205.91
821.00	210.09
822.00	210.84
823.00	210.19
824.00	212.57
825.00	219.14
826.00	210.60
827.00	367.44
828.00	291.41
829.00	233.92
830.00	218.47
831.00	204.85
832.00	205.51
833.00	211.39
834.00	211.51
835.00	211.88
836.00	207.27
837.00	211.62
838.00	209.10
839.00	204.16
840.00	213.52
841.00	317.05
842.00	386.48
843.00	685.52
844.00	454.51
845.00	308.23
846.00	265.98
847.00	215.44
848.00	208.26
849.00	210.27
850.00	209.77
851.00	209.11
852.00	226.45
853.00	323.12
854.00	239.16
855.00	221.29
856.00	221.94
857.00	203.26
858.00	209.15
859.00	201.24
860.00	206.81
861.00	218.60
862.00	212.42
863.00	209.09
864.00	213.88
865.00	206.29
866.00	205.22
867.00	219.16
868.00	219.00
869.00	216.73
870.00	209.26
871.00	209.33
872.00	204.84
873.00	210.30
874.00	205.55
875.00	205.52
876.00	207.04
877.00	208.36
878.00	208.19
879.00	207.66
880.00	205.87
881.00	208.83
882.00	204.37
883.00	205.76
884.00	207.00
885.00	204.07
886.00	208.79
887.00	205.30
888.00	207.88
889.00	203.21
890.00	206.60
891.00	212.08
892.00	204.39
893.00	202.80
894.00	205.52
895.00	208.78
896.00	203.05
897.00	199.58
898.00	204.33
899.00	205.13
900.00	204.72
901.00	203.38
902.00	211.99
903.00	210.76
904.00	201.13
905.00	204.86
906.00	208.71
907.00	208.80
908.00	207.37
909.00	208.79
910.00	208.66
911.00	208.75
912.00	236.63
913.00	427.91
914.00	337.82
915.00	274.80
916.00	246.44
917.00	224.21
918.00	203.83
919.00	203.57
920.00	205.07
921.00	208.62
922.00	205.37
923.00	237.47
924.00	228.51
925.00	221.00
926.00	209.99
927.00	212.75
928.00	203.90
929.00	201.55
930.00	203.47
931.00	202.60
932.00	206.50
933.00	197.19
934.00	203.18
935.00	200.16
936.00	203.23
937.00	205.02
938.00	204.74
939.00	201.00
940.00	203.13
941.00	203.92
942.00	206.94
943.00	206.02
944.00	205.35
945.00	208.84
946.00	200.53
947.00	204.03
948.00	208.05
949.00	202.09
950.00	204.41
951.00	207.51
952.00	204.00
953.00	202.68
954.00	203.49
955.00	210.37
956.00	204.66
957.00	203.90
958.00	206.59
959.00	200.95
960.00	205.78
961.00	201.88
962.00	201.64
963.00	204.58
964.00	204.89
965.00	208.11
966.00	206.33
967.00	217.71
968.00	214.01
969.00	208.84
970.00	208.36
971.00	202.77
972.00	208.22
973.00	209.20
974.00	205.25
975.00	200.82
976.00	204.41
977.00	204.57
978.00	202.20
979.00	204.27
980.00	206.34
981.00	205.63
982.00	205.37
983.00	203.39
984.00	200.19
985.00	212.01
986.00	202.70
987.00	199.05
988.00	206.68
989.00	207.48
990.00	198.74
991.00	202.17
992.00	204.98
993.00	203.32
994.00	208.11
995.00	204.41
996.00	206.48
997.00	206.98
998.00	205.28
999.00	207.39
1000.00	202.15
>>>>>End Processed Spectral Data<<<<<
