SpectraSuite Data File
++++++++++++++++++++++++++++++++++++
Date: Tue Oct 18 14:35:49 CDT 2011
User: Helimak
Dark Spectrum Present: No
Reference Spectrum Present: No
Number of Sampled Component Spectra: 1
Spectrometers: USB2G37154
Integration Time (usec): 200000 (USB2G37154)
Spectra Averaged: 1 (USB2G37154)
Boxcar Smoothing: 0 (USB2G37154)
Correct for Electrical Dark: No (USB2G37154)
Strobe/Lamp Enabled: No (USB2G37154)
Correct for Detector Non-linearity: No (USB2G37154)
Correct for Stray Light: No (USB2G37154)
Number of Pixels in Processed Spectrum: 651
>>>>>Begin Processed Spectral Data<<<<<
350.00	201.68
351.00	205.22
352.00	202.34
353.00	203.46
354.00	207.14
355.00	204.80
356.00	208.77
357.00	209.49
358.00	211.66
359.00	207.63
360.00	203.46
361.00	202.83
362.00	207.32
363.00	207.55
364.00	207.54
365.00	209.33
366.00	208.98
367.00	207.12
368.00	211.02
369.00	212.72
370.00	211.99
371.00	217.64
372.00	218.37
373.00	217.13
374.00	211.37
375.00	220.56
376.00	217.05
377.00	222.10
378.00	223.53
379.00	224.76
380.00	228.66
381.00	226.74
382.00	226.55
383.00	224.83
384.00	239.41
385.00	242.03
386.00	235.92
387.00	237.76
388.00	231.54
389.00	231.62
390.00	227.13
391.00	226.72
392.00	244.18
393.00	240.03
394.00	247.03
395.00	234.55
396.00	236.09
397.00	233.17
398.00	233.13
399.00	242.62
400.00	264.25
401.00	288.43
402.00	277.82
403.00	289.30
404.00	306.42
405.00	275.68
406.00	301.06
407.00	315.90
408.00	271.41
409.00	276.11
410.00	279.69
411.00	255.98
412.00	263.33
413.00	258.22
414.00	245.04
415.00	335.34
416.00	301.74
417.00	272.80
418.00	312.50
419.00	463.56
420.00	369.09
421.00	280.22
422.00	327.71
423.00	291.01
424.00	269.93
425.00	405.00
426.00	490.75
427.00	494.20
428.00	350.15
429.00	335.17
430.00	326.72
431.00	283.86
432.00	360.43
433.00	449.40
434.00	1084.07
435.00	645.26
436.00	430.32
437.00	389.84
438.00	324.42
439.00	409.31
440.00	361.44
441.00	360.28
442.00	704.82
443.00	451.31
444.00	301.98
445.00	257.10
446.00	256.43
447.00	295.98
448.00	287.02
449.00	270.25
450.00	292.02
451.00	289.72
452.00	284.88
453.00	305.74
454.00	414.65
455.00	335.97
456.00	312.32
457.00	382.88
458.00	533.95
459.00	438.92
460.00	702.25
461.00	490.80
462.00	339.15
463.00	287.76
464.00	276.61
465.00	373.77
466.00	307.53
467.00	275.60
468.00	265.59
469.00	275.21
470.00	276.80
471.00	284.06
472.00	404.31
473.00	437.67
474.00	318.68
475.00	301.19
476.00	444.74
477.00	319.39
478.00	264.08
479.00	291.98
480.00	793.91
481.00	431.77
482.00	310.00
483.00	277.67
484.00	378.15
485.00	400.89
486.00	407.82
487.00	1034.31
488.00	824.42
489.00	455.39
490.00	330.51
491.00	305.00
492.00	310.20
493.00	329.29
494.00	287.70
495.00	286.07
496.00	398.69
497.00	322.75
498.00	285.43
499.00	282.42
500.00	372.92
501.00	434.86
502.00	330.06
503.00	286.96
504.00	317.04
505.00	354.54
506.00	378.83
507.00	344.67
508.00	332.70
509.00	309.91
510.00	288.69
511.00	283.00
512.00	285.12
513.00	296.42
514.00	412.49
515.00	321.21
516.00	303.69
517.00	282.54
518.00	316.51
519.00	293.92
520.00	268.78
521.00	281.81
522.00	285.63
523.00	267.55
524.00	274.35
525.00	290.21
526.00	278.95
527.00	266.41
528.00	268.86
529.00	264.76
530.00	259.17
531.00	268.50
532.00	278.61
533.00	285.50
534.00	291.47
535.00	293.12
536.00	294.66
537.00	292.19
538.00	283.49
539.00	286.37
540.00	278.86
541.00	280.70
542.00	293.97
543.00	280.72
544.00	295.93
545.00	313.08
546.00	298.31
547.00	311.22
548.00	288.76
549.00	350.74
550.00	340.57
551.00	309.93
552.00	291.09
553.00	277.65
554.00	278.01
555.00	311.04
556.00	334.42
557.00	301.86
558.00	272.52
559.00	270.68
560.00	302.94
561.00	288.94
562.00	267.57
563.00	259.57
564.00	266.52
565.00	298.91
566.00	276.57
567.00	278.83
568.00	283.13
569.00	285.08
570.00	273.29
571.00	276.24
572.00	252.96
573.00	265.31
574.00	277.68
575.00	257.84
576.00	250.31
577.00	268.52
578.00	260.60
579.00	258.44
580.00	257.32
581.00	245.50
582.00	242.90
583.00	259.15
584.00	259.11
585.00	249.56
586.00	255.80
587.00	262.14
588.00	284.71
589.00	312.88
590.00	268.95
591.00	275.84
592.00	265.13
593.00	268.25
594.00	254.03
595.00	247.46
596.00	245.51
597.00	244.15
598.00	253.72
599.00	263.53
600.00	259.65
601.00	278.15
602.00	281.61
603.00	457.83
604.00	395.77
605.00	317.75
606.00	296.02
607.00	252.71
608.00	239.33
609.00	241.93
610.00	268.93
611.00	327.43
612.00	305.04
613.00	253.75
614.00	251.44
615.00	264.52
616.00	267.58
617.00	331.82
618.00	273.79
619.00	263.14
620.00	248.92
621.00	268.68
622.00	254.16
623.00	236.98
624.00	264.26
625.00	271.11
626.00	253.21
627.00	248.99
628.00	253.13
629.00	256.00
630.00	270.69
631.00	272.49
632.00	241.54
633.00	234.35
634.00	234.92
635.00	231.01
636.00	236.05
637.00	245.64
638.00	239.38
639.00	239.16
640.00	251.02
641.00	262.16
642.00	294.12
643.00	251.90
644.00	242.80
645.00	238.86
646.00	244.94
647.00	236.82
648.00	242.25
649.00	237.32
650.00	227.05
651.00	225.46
652.00	230.70
653.00	236.89
654.00	237.77
655.00	233.95
656.00	409.27
657.00	366.37
658.00	277.97
659.00	238.81
660.00	231.46
661.00	233.77
662.00	225.62
663.00	225.31
664.00	279.26
665.00	275.44
666.00	240.54
667.00	234.10
668.00	247.73
669.00	251.59
670.00	229.09
671.00	218.92
672.00	226.17
673.00	230.00
674.00	225.12
675.00	282.59
676.00	304.14
677.00	242.54
678.00	225.37
679.00	222.46
680.00	217.88
681.00	220.80
682.00	224.87
683.00	218.76
684.00	225.02
685.00	221.69
686.00	217.77
687.00	262.80
688.00	256.71
689.00	248.56
690.00	232.29
691.00	221.83
692.00	222.39
693.00	224.62
694.00	261.72
695.00	244.11
696.00	290.02
697.00	520.04
698.00	310.43
699.00	244.42
700.00	232.67
701.00	227.56
702.00	220.90
703.00	275.17
704.00	257.90
705.00	234.28
706.00	223.37
707.00	417.58
708.00	298.42
709.00	241.17
710.00	216.20
711.00	224.09
712.00	225.17
713.00	218.46
714.00	216.19
715.00	246.77
716.00	230.93
717.00	220.86
718.00	214.56
719.00	212.61
720.00	215.79
721.00	220.40
722.00	220.15
723.00	218.36
724.00	224.30
725.00	234.99
726.00	216.16
727.00	237.81
728.00	268.14
729.00	229.15
730.00	224.23
731.00	221.15
732.00	222.44
733.00	213.27
734.00	217.11
735.00	227.27
736.00	247.42
737.00	261.56
738.00	353.31
739.00	485.24
740.00	301.53
741.00	241.45
742.00	220.07
743.00	223.03
744.00	231.79
745.00	227.07
746.00	212.69
747.00	211.82
748.00	216.80
749.00	229.16
750.00	320.13
751.00	991.78
752.00	761.70
753.00	401.51
754.00	253.41
755.00	221.16
756.00	213.55
757.00	209.30
758.00	216.40
759.00	217.01
760.00	214.37
761.00	215.63
762.00	216.67
763.00	269.01
764.00	1592.28
765.00	789.98
766.00	404.91
767.00	243.49
768.00	216.25
769.00	214.94
770.00	211.34
771.00	209.85
772.00	224.48
773.00	500.75
774.00	323.63
775.00	249.98
776.00	216.11
777.00	224.92
778.00	349.00
779.00	266.29
780.00	225.94
781.00	209.60
782.00	209.93
783.00	205.19
784.00	209.11
785.00	213.12
786.00	212.51
787.00	214.24
788.00	215.95
789.00	219.94
790.00	225.62
791.00	217.81
792.00	217.45
793.00	217.62
794.00	214.37
795.00	387.11
796.00	432.00
797.00	277.50
798.00	245.70
799.00	215.66
800.00	214.53
801.00	382.86
802.00	638.42
803.00	408.71
804.00	284.48
805.00	227.19
806.00	222.32
807.00	211.83
808.00	218.50
809.00	218.66
810.00	233.94
811.00	603.39
812.00	2925.33
813.00	1808.66
814.00	723.80
815.00	385.53
816.00	234.84
817.00	218.39
818.00	214.95
819.00	214.03
820.00	207.58
821.00	204.99
822.00	211.30
823.00	207.69
824.00	204.15
825.00	215.49
826.00	211.84
827.00	342.82
828.00	281.78
829.00	234.10
830.00	217.98
831.00	209.91
832.00	206.96
833.00	203.80
834.00	209.11
835.00	211.27
836.00	210.05
837.00	207.25
838.00	204.43
839.00	210.97
840.00	209.57
841.00	301.50
842.00	364.03
843.00	622.61
844.00	422.08
845.00	294.51
846.00	251.24
847.00	214.81
848.00	207.07
849.00	206.74
850.00	204.27
851.00	207.16
852.00	217.15
853.00	306.23
854.00	238.94
855.00	222.35
856.00	219.17
857.00	208.59
858.00	209.42
859.00	205.05
860.00	202.04
861.00	213.19
862.00	207.58
863.00	206.00
864.00	212.59
865.00	207.98
866.00	208.66
867.00	216.72
868.00	214.04
869.00	211.95
870.00	210.31
871.00	210.64
872.00	203.00
873.00	204.69
874.00	201.29
875.00	206.27
876.00	207.71
877.00	210.56
878.00	207.12
879.00	204.26
880.00	207.95
881.00	204.18
882.00	202.10
883.00	202.90
884.00	204.00
885.00	206.21
886.00	202.39
887.00	205.95
888.00	202.10
889.00	205.88
890.00	206.06
891.00	205.21
892.00	204.99
893.00	204.54
894.00	204.96
895.00	204.89
896.00	209.13
897.00	205.38
898.00	204.20
899.00	206.66
900.00	207.08
901.00	202.85
902.00	197.38
903.00	207.23
904.00	202.32
905.00	203.00
906.00	215.13
907.00	204.35
908.00	206.35
909.00	206.44
910.00	207.64
911.00	208.93
912.00	226.12
913.00	386.45
914.00	315.16
915.00	258.00
916.00	243.03
917.00	223.97
918.00	208.67
919.00	207.46
920.00	205.13
921.00	209.80
922.00	206.73
923.00	233.41
924.00	225.48
925.00	216.37
926.00	212.98
927.00	209.17
928.00	208.71
929.00	203.22
930.00	203.41
931.00	204.77
932.00	202.78
933.00	204.94
934.00	201.78
935.00	201.33
936.00	205.06
937.00	201.96
938.00	204.57
939.00	209.07
940.00	206.61
941.00	202.92
942.00	205.96
943.00	205.29
944.00	204.31
945.00	206.51
946.00	203.04
947.00	203.97
948.00	205.65
949.00	207.53
950.00	205.14
951.00	205.25
952.00	203.07
953.00	204.12
954.00	204.20
955.00	207.19
956.00	204.66
957.00	202.10
958.00	205.24
959.00	204.96
960.00	206.84
961.00	203.43
962.00	202.16
963.00	200.57
964.00	204.60
965.00	197.80
966.00	204.39
967.00	209.90
968.00	210.97
969.00	212.12
970.00	206.46
971.00	208.08
972.00	205.05
973.00	207.77
974.00	202.47
975.00	204.89
976.00	202.45
977.00	206.89
978.00	205.78
979.00	206.94
980.00	203.18
981.00	202.98
982.00	204.38
983.00	210.79
984.00	201.38
985.00	205.45
986.00	200.29
987.00	189.37
988.00	209.59
989.00	205.45
990.00	206.68
991.00	204.35
992.00	206.56
993.00	205.81
994.00	199.42
995.00	204.00
996.00	204.01
997.00	206.87
998.00	205.40
999.00	206.13
1000.00	203.14
>>>>>End Processed Spectral Data<<<<<
