SpectraSuite Data File
++++++++++++++++++++++++++++++++++++
Date: Tue Oct 18 14:35:50 CDT 2011
User: Helimak
Dark Spectrum Present: No
Reference Spectrum Present: No
Number of Sampled Component Spectra: 1
Spectrometers: USB2G37154
Integration Time (usec): 200000 (USB2G37154)
Spectra Averaged: 1 (USB2G37154)
Boxcar Smoothing: 0 (USB2G37154)
Correct for Electrical Dark: No (USB2G37154)
Strobe/Lamp Enabled: No (USB2G37154)
Correct for Detector Non-linearity: No (USB2G37154)
Correct for Stray Light: No (USB2G37154)
Number of Pixels in Processed Spectrum: 651
>>>>>Begin Processed Spectral Data<<<<<
350.00	202.67
351.00	204.32
352.00	207.09
353.00	204.80
354.00	205.85
355.00	206.60
356.00	206.13
357.00	203.74
358.00	211.41
359.00	203.52
360.00	205.33
361.00	203.61
362.00	211.49
363.00	207.37
364.00	212.66
365.00	209.30
366.00	207.66
367.00	203.79
368.00	208.20
369.00	213.62
370.00	207.10
371.00	211.56
372.00	215.10
373.00	210.11
374.00	210.95
375.00	215.59
376.00	215.19
377.00	223.64
378.00	225.00
379.00	222.10
380.00	229.41
381.00	225.80
382.00	226.08
383.00	229.47
384.00	240.91
385.00	241.78
386.00	241.95
387.00	239.11
388.00	233.12
389.00	228.63
390.00	229.48
391.00	231.78
392.00	240.57
393.00	242.18
394.00	247.22
395.00	233.31
396.00	236.99
397.00	232.02
398.00	229.35
399.00	242.37
400.00	266.87
401.00	289.30
402.00	273.98
403.00	299.29
404.00	307.00
405.00	274.23
406.00	304.06
407.00	318.62
408.00	271.62
409.00	274.72
410.00	285.08
411.00	249.92
412.00	261.86
413.00	266.15
414.00	245.38
415.00	334.56
416.00	303.45
417.00	277.12
418.00	313.76
419.00	464.95
420.00	372.66
421.00	281.94
422.00	333.59
423.00	295.81
424.00	270.54
425.00	403.01
426.00	502.04
427.00	494.05
428.00	358.62
429.00	339.07
430.00	325.27
431.00	289.69
432.00	348.60
433.00	452.42
434.00	1106.48
435.00	644.91
436.00	430.38
437.00	393.57
438.00	325.86
439.00	413.48
440.00	371.56
441.00	367.55
442.00	706.22
443.00	450.76
444.00	301.53
445.00	262.18
446.00	255.13
447.00	295.69
448.00	289.60
449.00	265.03
450.00	295.94
451.00	291.43
452.00	285.27
453.00	304.08
454.00	419.05
455.00	333.21
456.00	314.83
457.00	376.10
458.00	544.68
459.00	436.95
460.00	705.12
461.00	503.24
462.00	339.25
463.00	287.46
464.00	272.97
465.00	375.23
466.00	310.54
467.00	277.25
468.00	272.11
469.00	280.72
470.00	277.76
471.00	284.87
472.00	396.87
473.00	438.93
474.00	322.22
475.00	300.78
476.00	436.58
477.00	314.83
478.00	265.03
479.00	290.17
480.00	810.00
481.00	438.78
482.00	310.95
483.00	275.30
484.00	387.59
485.00	399.14
486.00	409.97
487.00	1053.44
488.00	834.44
489.00	446.37
490.00	329.43
491.00	304.86
492.00	302.55
493.00	330.11
494.00	292.00
495.00	287.57
496.00	405.30
497.00	321.10
498.00	283.03
499.00	276.93
500.00	374.59
501.00	447.26
502.00	326.06
503.00	290.23
504.00	316.68
505.00	354.85
506.00	384.37
507.00	352.30
508.00	337.59
509.00	319.32
510.00	287.68
511.00	280.07
512.00	282.73
513.00	305.77
514.00	407.94
515.00	330.96
516.00	313.76
517.00	285.91
518.00	320.55
519.00	297.15
520.00	277.78
521.00	280.29
522.00	288.98
523.00	269.91
524.00	269.47
525.00	295.91
526.00	276.36
527.00	264.35
528.00	267.95
529.00	270.18
530.00	269.04
531.00	268.94
532.00	277.91
533.00	287.90
534.00	286.80
535.00	298.52
536.00	296.28
537.00	292.05
538.00	288.36
539.00	292.63
540.00	284.65
541.00	287.17
542.00	292.31
543.00	281.29
544.00	292.69
545.00	316.36
546.00	304.06
547.00	313.36
548.00	288.18
549.00	359.41
550.00	340.07
551.00	308.91
552.00	288.52
553.00	285.90
554.00	275.75
555.00	319.94
556.00	328.27
557.00	304.44
558.00	273.70
559.00	267.27
560.00	303.52
561.00	282.67
562.00	260.77
563.00	265.10
564.00	270.08
565.00	298.26
566.00	278.08
567.00	278.31
568.00	291.22
569.00	291.00
570.00	271.41
571.00	278.60
572.00	253.86
573.00	269.68
574.00	277.59
575.00	254.41
576.00	256.82
577.00	273.37
578.00	264.81
579.00	255.52
580.00	258.77
581.00	245.98
582.00	248.75
583.00	261.30
584.00	255.85
585.00	249.70
586.00	261.12
587.00	254.26
588.00	286.88
589.00	309.08
590.00	269.95
591.00	268.97
592.00	266.94
593.00	275.19
594.00	260.03
595.00	242.35
596.00	245.48
597.00	251.17
598.00	255.89
599.00	268.45
600.00	260.61
601.00	274.06
602.00	278.35
603.00	456.60
604.00	390.67
605.00	316.46
606.00	292.42
607.00	251.35
608.00	234.91
609.00	240.88
610.00	274.71
611.00	324.32
612.00	303.88
613.00	260.19
614.00	253.51
615.00	261.29
616.00	259.63
617.00	333.87
618.00	275.69
619.00	256.66
620.00	249.74
621.00	274.84
622.00	259.86
623.00	243.89
624.00	259.07
625.00	266.49
626.00	255.98
627.00	249.42
628.00	254.29
629.00	258.87
630.00	268.59
631.00	265.69
632.00	243.87
633.00	239.65
634.00	231.48
635.00	230.94
636.00	238.55
637.00	244.77
638.00	243.20
639.00	243.88
640.00	251.01
641.00	259.80
642.00	298.87
643.00	256.72
644.00	238.35
645.00	241.02
646.00	246.07
647.00	239.74
648.00	244.32
649.00	235.77
650.00	234.50
651.00	226.47
652.00	232.76
653.00	227.58
654.00	239.83
655.00	233.25
656.00	405.89
657.00	377.42
658.00	283.98
659.00	238.39
660.00	231.71
661.00	231.56
662.00	223.09
663.00	225.76
664.00	281.67
665.00	276.30
666.00	242.60
667.00	230.62
668.00	251.64
669.00	254.21
670.00	229.34
671.00	221.75
672.00	224.44
673.00	226.02
674.00	223.06
675.00	285.12
676.00	310.90
677.00	247.48
678.00	227.91
679.00	220.01
680.00	219.39
681.00	223.55
682.00	224.92
683.00	222.40
684.00	225.68
685.00	220.66
686.00	223.60
687.00	262.46
688.00	255.85
689.00	251.46
690.00	224.01
691.00	222.37
692.00	220.91
693.00	219.49
694.00	256.56
695.00	246.98
696.00	287.02
697.00	522.04
698.00	309.91
699.00	241.67
700.00	227.07
701.00	220.91
702.00	230.06
703.00	275.10
704.00	272.29
705.00	237.58
706.00	221.53
707.00	413.27
708.00	296.93
709.00	239.89
710.00	217.93
711.00	220.28
712.00	219.01
713.00	219.35
714.00	218.34
715.00	243.29
716.00	237.56
717.00	221.13
718.00	217.27
719.00	214.06
720.00	218.16
721.00	224.76
722.00	220.42
723.00	219.00
724.00	222.76
725.00	239.15
726.00	220.54
727.00	243.31
728.00	275.55
729.00	234.19
730.00	218.63
731.00	219.06
732.00	222.33
733.00	214.40
734.00	217.20
735.00	223.52
736.00	245.36
737.00	266.18
738.00	354.39
739.00	490.80
740.00	312.84
741.00	240.13
742.00	225.93
743.00	223.00
744.00	235.27
745.00	229.39
746.00	213.64
747.00	213.20
748.00	217.06
749.00	223.08
750.00	302.79
751.00	993.46
752.00	758.48
753.00	400.65
754.00	261.27
755.00	217.35
756.00	213.35
757.00	210.57
758.00	217.45
759.00	220.86
760.00	216.96
761.00	215.60
762.00	219.90
763.00	265.57
764.00	1600.14
765.00	785.38
766.00	408.72
767.00	246.04
768.00	218.15
769.00	214.33
770.00	207.06
771.00	211.12
772.00	230.53
773.00	503.23
774.00	316.14
775.00	256.83
776.00	214.17
777.00	228.56
778.00	360.01
779.00	270.12
780.00	232.16
781.00	212.94
782.00	208.97
783.00	205.20
784.00	209.94
785.00	212.91
786.00	213.52
787.00	216.79
788.00	219.06
789.00	223.98
790.00	226.23
791.00	220.25
792.00	213.85
793.00	217.12
794.00	213.95
795.00	402.01
796.00	438.50
797.00	282.68
798.00	243.01
799.00	213.59
800.00	214.80
801.00	387.60
802.00	647.37
803.00	419.14
804.00	284.30
805.00	232.23
806.00	216.59
807.00	214.78
808.00	215.33
809.00	222.10
810.00	235.02
811.00	589.32
812.00	2961.71
813.00	1816.97
814.00	722.51
815.00	399.79
816.00	230.41
817.00	215.49
818.00	216.20
819.00	213.09
820.00	211.46
821.00	206.05
822.00	218.13
823.00	209.56
824.00	209.37
825.00	212.96
826.00	213.94
827.00	341.93
828.00	271.07
829.00	234.30
830.00	219.90
831.00	208.79
832.00	209.02
833.00	210.60
834.00	210.37
835.00	205.85
836.00	204.46
837.00	205.86
838.00	205.98
839.00	209.84
840.00	219.92
841.00	299.93
842.00	367.99
843.00	635.43
844.00	423.23
845.00	299.72
846.00	256.71
847.00	217.49
848.00	205.93
849.00	207.28
850.00	207.22
851.00	209.43
852.00	216.43
853.00	309.26
854.00	235.36
855.00	221.38
856.00	221.31
857.00	206.83
858.00	209.71
859.00	210.21
860.00	208.53
861.00	212.88
862.00	208.49
863.00	209.39
864.00	210.13
865.00	207.45
866.00	207.61
867.00	215.07
868.00	214.04
869.00	209.19
870.00	206.51
871.00	206.50
872.00	206.10
873.00	204.56
874.00	204.87
875.00	209.29
876.00	203.39
877.00	208.28
878.00	206.18
879.00	200.48
880.00	207.00
881.00	206.09
882.00	204.94
883.00	204.11
884.00	202.00
885.00	205.56
886.00	201.32
887.00	206.70
888.00	203.94
889.00	204.50
890.00	206.14
891.00	204.94
892.00	203.00
893.00	204.62
894.00	200.61
895.00	209.76
896.00	208.72
897.00	203.98
898.00	202.30
899.00	199.78
900.00	203.13
901.00	208.25
902.00	201.85
903.00	211.07
904.00	201.24
905.00	206.11
906.00	207.50
907.00	206.23
908.00	211.53
909.00	209.37
910.00	206.74
911.00	211.06
912.00	223.83
913.00	390.76
914.00	312.77
915.00	269.35
916.00	238.00
917.00	220.46
918.00	205.58
919.00	205.69
920.00	203.79
921.00	208.59
922.00	207.76
923.00	229.01
924.00	222.98
925.00	217.53
926.00	213.01
927.00	213.50
928.00	202.53
929.00	205.17
930.00	204.82
931.00	201.58
932.00	202.83
933.00	200.11
934.00	206.51
935.00	203.52
936.00	202.54
937.00	202.08
938.00	203.25
939.00	200.00
940.00	208.37
941.00	205.42
942.00	203.98
943.00	203.99
944.00	201.78
945.00	207.04
946.00	204.22
947.00	206.01
948.00	200.14
949.00	202.17
950.00	204.67
951.00	207.70
952.00	196.98
953.00	204.21
954.00	201.70
955.00	208.12
956.00	202.33
957.00	206.00
958.00	205.30
959.00	204.96
960.00	203.93
961.00	200.34
962.00	205.59
963.00	200.83
964.00	202.47
965.00	206.39
966.00	205.21
967.00	216.00
968.00	214.00
969.00	205.61
970.00	205.65
971.00	210.34
972.00	206.33
973.00	209.17
974.00	205.72
975.00	209.86
976.00	206.06
977.00	203.77
978.00	206.63
979.00	203.53
980.00	204.42
981.00	201.57
982.00	207.28
983.00	206.98
984.00	206.45
985.00	210.52
986.00	204.71
987.00	206.75
988.00	205.56
989.00	200.24
990.00	205.97
991.00	207.54
992.00	202.13
993.00	206.45
994.00	206.91
995.00	203.25
996.00	202.04
997.00	205.48
998.00	204.13
999.00	207.32
1000.00	205.95
>>>>>End Processed Spectral Data<<<<<
