SpectraSuite Data File
++++++++++++++++++++++++++++++++++++
Date: Tue Oct 18 14:47:30 CDT 2011
User: Helimak
Dark Spectrum Present: No
Reference Spectrum Present: No
Number of Sampled Component Spectra: 1
Spectrometers: USB2G37154
Integration Time (usec): 200000 (USB2G37154)
Spectra Averaged: 1 (USB2G37154)
Boxcar Smoothing: 0 (USB2G37154)
Correct for Electrical Dark: No (USB2G37154)
Strobe/Lamp Enabled: No (USB2G37154)
Correct for Detector Non-linearity: No (USB2G37154)
Correct for Stray Light: No (USB2G37154)
Number of Pixels in Processed Spectrum: 651
>>>>>Begin Processed Spectral Data<<<<<
350.00	205.15
351.00	206.74
352.00	201.47
353.00	205.28
354.00	206.84
355.00	209.18
356.00	206.30
357.00	204.40
358.00	215.14
359.00	211.43
360.00	210.15
361.00	207.69
362.00	208.52
363.00	210.60
364.00	209.56
365.00	210.71
366.00	207.15
367.00	204.06
368.00	213.20
369.00	214.11
370.00	207.98
371.00	211.73
372.00	215.08
373.00	219.62
374.00	216.57
375.00	222.46
376.00	222.39
377.00	224.97
378.00	227.67
379.00	211.06
380.00	236.49
381.00	232.38
382.00	236.13
383.00	234.87
384.00	244.71
385.00	246.96
386.00	240.95
387.00	242.58
388.00	238.20
389.00	235.13
390.00	231.90
391.00	237.72
392.00	245.44
393.00	247.51
394.00	258.74
395.00	244.66
396.00	241.91
397.00	233.95
398.00	234.32
399.00	254.05
400.00	280.06
401.00	308.79
402.00	298.32
403.00	315.84
404.00	326.09
405.00	287.80
406.00	323.08
407.00	337.68
408.00	290.06
409.00	293.38
410.00	300.42
411.00	262.67
412.00	275.08
413.00	269.14
414.00	256.05
415.00	353.42
416.00	322.44
417.00	287.99
418.00	333.66
419.00	495.27
420.00	404.98
421.00	295.98
422.00	346.03
423.00	308.09
424.00	289.91
425.00	440.92
426.00	541.59
427.00	543.60
428.00	381.29
429.00	367.94
430.00	340.62
431.00	304.60
432.00	381.75
433.00	486.91
434.00	1219.51
435.00	710.88
436.00	457.66
437.00	427.86
438.00	343.28
439.00	446.64
440.00	398.40
441.00	384.60
442.00	781.30
443.00	487.67
444.00	323.19
445.00	269.76
446.00	264.62
447.00	311.37
448.00	310.00
449.00	285.08
450.00	310.66
451.00	309.19
452.00	300.39
453.00	333.68
454.00	456.08
455.00	357.64
456.00	336.58
457.00	417.59
458.00	585.62
459.00	475.51
460.00	765.36
461.00	542.72
462.00	360.88
463.00	304.37
464.00	292.98
465.00	395.30
466.00	329.73
467.00	285.64
468.00	288.99
469.00	299.38
470.00	290.56
471.00	299.86
472.00	435.51
473.00	482.43
474.00	338.82
475.00	318.00
476.00	465.30
477.00	335.16
478.00	286.48
479.00	307.67
480.00	883.52
481.00	464.84
482.00	323.32
483.00	287.54
484.00	412.26
485.00	448.46
486.00	468.94
487.00	1169.71
488.00	931.82
489.00	495.67
490.00	363.58
491.00	328.41
492.00	324.52
493.00	355.96
494.00	311.27
495.00	301.86
496.00	443.30
497.00	345.67
498.00	308.16
499.00	302.88
500.00	405.33
501.00	480.37
502.00	351.06
503.00	312.37
504.00	346.07
505.00	392.37
506.00	408.85
507.00	380.91
508.00	366.50
509.00	338.38
510.00	306.37
511.00	305.09
512.00	297.34
513.00	324.20
514.00	444.47
515.00	347.18
516.00	336.75
517.00	305.15
518.00	348.75
519.00	316.61
520.00	292.35
521.00	293.51
522.00	309.87
523.00	288.27
524.00	292.75
525.00	309.77
526.00	293.00
527.00	279.10
528.00	283.33
529.00	284.42
530.00	275.24
531.00	283.06
532.00	297.22
533.00	302.31
534.00	310.20
535.00	321.12
536.00	312.34
537.00	312.47
538.00	306.10
539.00	303.02
540.00	297.27
541.00	300.67
542.00	304.23
543.00	295.26
544.00	310.78
545.00	332.29
546.00	325.66
547.00	337.02
548.00	310.17
549.00	379.22
550.00	370.45
551.00	327.96
552.00	321.37
553.00	303.63
554.00	297.97
555.00	338.48
556.00	359.24
557.00	327.31
558.00	285.55
559.00	283.00
560.00	326.21
561.00	299.14
562.00	275.90
563.00	269.42
564.00	286.05
565.00	320.14
566.00	297.57
567.00	302.94
568.00	299.27
569.00	309.49
570.00	294.79
571.00	288.65
572.00	271.19
573.00	275.76
574.00	290.42
575.00	266.57
576.00	264.71
577.00	285.90
578.00	275.00
579.00	273.68
580.00	271.75
581.00	264.12
582.00	256.18
583.00	272.93
584.00	267.99
585.00	253.13
586.00	277.21
587.00	272.08
588.00	302.66
589.00	330.94
590.00	282.37
591.00	284.09
592.00	275.16
593.00	282.14
594.00	272.03
595.00	252.02
596.00	251.40
597.00	261.00
598.00	268.89
599.00	283.72
600.00	284.54
601.00	289.35
602.00	292.88
603.00	487.38
604.00	429.76
605.00	336.88
606.00	315.18
607.00	269.28
608.00	245.54
609.00	251.92
610.00	284.63
611.00	339.80
612.00	322.84
613.00	267.94
614.00	266.93
615.00	267.70
616.00	275.13
617.00	351.90
618.00	289.83
619.00	271.67
620.00	264.27
621.00	285.79
622.00	271.74
623.00	249.39
624.00	273.14
625.00	285.38
626.00	266.11
627.00	262.85
628.00	263.35
629.00	276.09
630.00	279.49
631.00	278.29
632.00	246.33
633.00	244.26
634.00	241.68
635.00	239.01
636.00	243.77
637.00	248.29
638.00	245.22
639.00	252.34
640.00	260.20
641.00	279.87
642.00	314.51
643.00	264.19
644.00	253.63
645.00	247.05
646.00	258.03
647.00	252.39
648.00	251.90
649.00	247.09
650.00	238.70
651.00	234.65
652.00	238.97
653.00	240.72
654.00	250.92
655.00	248.37
656.00	470.79
657.00	422.53
658.00	300.97
659.00	245.55
660.00	249.14
661.00	240.34
662.00	229.46
663.00	225.11
664.00	284.32
665.00	285.51
666.00	241.45
667.00	237.85
668.00	257.62
669.00	267.36
670.00	239.20
671.00	229.43
672.00	234.94
673.00	236.93
674.00	224.06
675.00	302.29
676.00	322.66
677.00	249.56
678.00	231.95
679.00	224.11
680.00	222.02
681.00	220.32
682.00	229.11
683.00	231.69
684.00	228.84
685.00	224.96
686.00	224.92
687.00	280.73
688.00	267.61
689.00	258.77
690.00	233.82
691.00	224.76
692.00	224.26
693.00	231.90
694.00	264.36
695.00	251.04
696.00	310.02
697.00	568.55
698.00	321.12
699.00	255.82
700.00	234.19
701.00	228.40
702.00	229.37
703.00	292.85
704.00	273.08
705.00	235.23
706.00	232.12
707.00	448.95
708.00	303.13
709.00	245.07
710.00	222.85
711.00	228.66
712.00	225.06
713.00	223.42
714.00	222.06
715.00	252.46
716.00	243.94
717.00	225.21
718.00	218.45
719.00	215.66
720.00	223.36
721.00	225.79
722.00	226.44
723.00	227.90
724.00	224.10
725.00	242.79
726.00	223.26
727.00	247.45
728.00	282.97
729.00	237.61
730.00	220.04
731.00	222.67
732.00	225.03
733.00	220.67
734.00	217.96
735.00	230.36
736.00	252.16
737.00	278.90
738.00	379.56
739.00	533.29
740.00	318.23
741.00	253.45
742.00	223.07
743.00	228.05
744.00	235.82
745.00	230.96
746.00	210.56
747.00	212.14
748.00	215.28
749.00	229.69
750.00	342.53
751.00	1100.35
752.00	823.02
753.00	429.42
754.00	268.39
755.00	219.87
756.00	216.06
757.00	215.93
758.00	215.83
759.00	222.29
760.00	222.41
761.00	219.59
762.00	218.07
763.00	287.24
764.00	1809.17
765.00	858.07
766.00	433.57
767.00	245.78
768.00	220.05
769.00	215.54
770.00	214.84
771.00	209.74
772.00	238.64
773.00	536.27
774.00	335.22
775.00	259.29
776.00	220.75
777.00	237.82
778.00	400.02
779.00	288.63
780.00	235.73
781.00	212.84
782.00	211.50
783.00	210.15
784.00	211.06
785.00	208.10
786.00	215.56
787.00	218.73
788.00	214.25
789.00	226.95
790.00	229.71
791.00	220.78
792.00	221.02
793.00	218.44
794.00	220.37
795.00	454.20
796.00	458.45
797.00	292.51
798.00	249.86
799.00	216.66
800.00	218.67
801.00	422.61
802.00	712.50
803.00	446.16
804.00	291.96
805.00	230.22
806.00	224.51
807.00	202.68
808.00	217.16
809.00	227.06
810.00	245.73
811.00	670.43
812.00	3379.51
813.00	2035.31
814.00	778.76
815.00	415.15
816.00	234.79
817.00	219.47
818.00	212.23
819.00	216.65
820.00	210.65
821.00	209.00
822.00	207.58
823.00	209.66
824.00	208.01
825.00	215.30
826.00	211.93
827.00	362.56
828.00	290.60
829.00	239.16
830.00	221.39
831.00	208.68
832.00	204.86
833.00	205.09
834.00	209.10
835.00	210.51
836.00	215.00
837.00	208.01
838.00	205.66
839.00	210.86
840.00	214.03
841.00	331.24
842.00	388.28
843.00	705.58
844.00	450.33
845.00	309.76
846.00	265.65
847.00	217.77
848.00	207.81
849.00	207.51
850.00	206.08
851.00	206.11
852.00	220.29
853.00	321.44
854.00	241.14
855.00	226.16
856.00	217.87
857.00	208.53
858.00	210.78
859.00	205.24
860.00	203.18
861.00	215.98
862.00	208.44
863.00	207.30
864.00	210.22
865.00	205.79
866.00	207.60
867.00	215.65
868.00	230.00
869.00	211.51
870.00	208.40
871.00	208.21
872.00	207.01
873.00	208.27
874.00	206.29
875.00	209.92
876.00	208.93
877.00	207.94
878.00	203.40
879.00	206.46
880.00	206.08
881.00	206.03
882.00	204.77
883.00	207.04
884.00	206.00
885.00	203.04
886.00	205.36
887.00	203.61
888.00	204.82
889.00	203.79
890.00	209.31
891.00	203.35
892.00	204.47
893.00	202.99
894.00	203.47
895.00	208.68
896.00	203.45
897.00	203.04
898.00	203.87
899.00	201.22
900.00	207.99
901.00	201.55
902.00	203.51
903.00	211.27
904.00	202.84
905.00	202.10
906.00	205.81
907.00	206.99
908.00	211.49
909.00	204.12
910.00	207.39
911.00	208.99
912.00	238.76
913.00	434.83
914.00	328.41
915.00	273.67
916.00	243.74
917.00	223.46
918.00	206.29
919.00	205.67
920.00	206.23
921.00	208.36
922.00	212.25
923.00	238.01
924.00	225.24
925.00	213.26
926.00	215.00
927.00	211.97
928.00	205.31
929.00	205.12
930.00	207.72
931.00	203.81
932.00	203.83
933.00	202.54
934.00	205.26
935.00	202.28
936.00	206.57
937.00	206.63
938.00	204.15
939.00	202.48
940.00	204.54
941.00	201.81
942.00	202.94
943.00	203.91
944.00	203.67
945.00	207.03
946.00	202.04
947.00	208.99
948.00	207.30
949.00	202.69
950.00	205.83
951.00	205.24
952.00	204.04
953.00	204.25
954.00	202.16
955.00	202.84
956.00	202.51
957.00	208.06
958.00	205.84
959.00	203.97
960.00	205.04
961.00	202.23
962.00	204.40
963.00	203.44
964.00	207.44
965.00	206.90
966.00	206.14
967.00	214.55
968.00	208.02
969.00	212.33
970.00	207.27
971.00	207.28
972.00	205.54
973.00	210.55
974.00	209.15
975.00	200.68
976.00	205.31
977.00	202.13
978.00	206.03
979.00	204.36
980.00	204.85
981.00	205.62
982.00	208.36
983.00	211.32
984.00	204.21
985.00	204.82
986.00	205.77
987.00	207.51
988.00	204.42
989.00	205.98
990.00	199.43
991.00	203.95
992.00	203.59
993.00	204.89
994.00	204.39
995.00	203.61
996.00	205.23
997.00	204.47
998.00	204.50
999.00	205.94
1000.00	199.82
>>>>>End Processed Spectral Data<<<<<
