SpectraSuite Data File
++++++++++++++++++++++++++++++++++++
Date: Tue Oct 18 14:45:27 CDT 2011
User: Helimak
Dark Spectrum Present: No
Reference Spectrum Present: No
Number of Sampled Component Spectra: 1
Spectrometers: USB2G37154
Integration Time (usec): 200000 (USB2G37154)
Spectra Averaged: 1 (USB2G37154)
Boxcar Smoothing: 0 (USB2G37154)
Correct for Electrical Dark: No (USB2G37154)
Strobe/Lamp Enabled: No (USB2G37154)
Correct for Detector Non-linearity: No (USB2G37154)
Correct for Stray Light: No (USB2G37154)
Number of Pixels in Processed Spectrum: 651
>>>>>Begin Processed Spectral Data<<<<<
350.00	197.72
351.00	203.78
352.00	203.62
353.00	205.28
354.00	205.20
355.00	198.02
356.00	201.16
357.00	209.01
358.00	204.81
359.00	203.61
360.00	205.25
361.00	208.17
362.00	208.25
363.00	204.93
364.00	209.31
365.00	207.04
366.00	205.40
367.00	206.94
368.00	209.58
369.00	204.50
370.00	211.03
371.00	208.10
372.00	210.88
373.00	209.11
374.00	208.68
375.00	211.29
376.00	210.75
377.00	211.29
378.00	217.86
379.00	217.41
380.00	216.72
381.00	216.41
382.00	224.71
383.00	224.96
384.00	222.22
385.00	224.38
386.00	227.92
387.00	228.58
388.00	221.93
389.00	220.46
390.00	217.30
391.00	219.55
392.00	226.02
393.00	229.10
394.00	233.16
395.00	224.51
396.00	219.95
397.00	220.13
398.00	218.50
399.00	227.52
400.00	238.90
401.00	252.70
402.00	252.59
403.00	257.24
404.00	257.86
405.00	245.60
406.00	255.03
407.00	262.52
408.00	243.12
409.00	248.03
410.00	244.28
411.00	233.03
412.00	234.13
413.00	231.97
414.00	233.98
415.00	281.12
416.00	264.17
417.00	251.03
418.00	266.35
419.00	354.21
420.00	305.31
421.00	246.86
422.00	267.59
423.00	253.50
424.00	243.26
425.00	322.42
426.00	367.30
427.00	354.34
428.00	286.46
429.00	280.76
430.00	275.19
431.00	256.99
432.00	293.05
433.00	336.00
434.00	622.48
435.00	416.86
436.00	313.46
437.00	301.62
438.00	266.88
439.00	307.86
440.00	284.80
441.00	282.31
442.00	433.61
443.00	317.39
444.00	253.82
445.00	238.89
446.00	235.18
447.00	252.15
448.00	250.25
449.00	246.02
450.00	257.42
451.00	263.07
452.00	254.66
453.00	267.81
454.00	310.55
455.00	283.58
456.00	275.92
457.00	299.35
458.00	368.29
459.00	322.12
460.00	434.62
461.00	350.64
462.00	277.30
463.00	254.89
464.00	249.19
465.00	291.65
466.00	269.82
467.00	248.84
468.00	258.06
469.00	250.61
470.00	252.06
471.00	241.62
472.00	311.42
473.00	321.23
474.00	269.43
475.00	266.63
476.00	312.51
477.00	266.78
478.00	246.98
479.00	255.92
480.00	483.20
481.00	321.19
482.00	270.09
483.00	251.93
484.00	301.27
485.00	321.48
486.00	330.33
487.00	592.40
488.00	516.27
489.00	342.52
490.00	281.91
491.00	272.52
492.00	268.01
493.00	281.80
494.00	265.32
495.00	262.83
496.00	316.59
497.00	273.02
498.00	266.53
499.00	260.93
500.00	301.82
501.00	333.00
502.00	282.02
503.00	267.58
504.00	284.21
505.00	296.81
506.00	307.18
507.00	303.25
508.00	292.98
509.00	281.79
510.00	266.43
511.00	266.99
512.00	263.16
513.00	267.23
514.00	319.76
515.00	284.22
516.00	274.62
517.00	257.28
518.00	284.80
519.00	268.23
520.00	257.17
521.00	259.60
522.00	263.29
523.00	249.82
524.00	255.82
525.00	273.00
526.00	262.98
527.00	252.98
528.00	256.45
529.00	249.94
530.00	254.13
531.00	253.19
532.00	258.59
533.00	272.64
534.00	275.31
535.00	275.27
536.00	272.48
537.00	269.23
538.00	262.98
539.00	259.47
540.00	257.88
541.00	259.25
542.00	266.64
543.00	263.62
544.00	266.31
545.00	275.53
546.00	272.73
547.00	286.12
548.00	272.93
549.00	302.74
550.00	295.08
551.00	275.98
552.00	263.41
553.00	262.23
554.00	258.54
555.00	277.37
556.00	286.96
557.00	271.98
558.00	249.09
559.00	257.68
560.00	267.47
561.00	256.47
562.00	248.96
563.00	244.13
564.00	251.17
565.00	265.79
566.00	259.18
567.00	261.44
568.00	268.08
569.00	259.81
570.00	257.98
571.00	261.01
572.00	239.24
573.00	247.12
574.00	261.80
575.00	240.55
576.00	243.12
577.00	243.03
578.00	246.97
579.00	242.64
580.00	245.19
581.00	235.17
582.00	237.41
583.00	243.90
584.00	241.56
585.00	239.11
586.00	240.82
587.00	245.94
588.00	259.83
589.00	273.52
590.00	250.22
591.00	257.48
592.00	243.68
593.00	252.18
594.00	241.05
595.00	237.21
596.00	231.55
597.00	238.44
598.00	239.25
599.00	243.01
600.00	251.96
601.00	259.10
602.00	259.18
603.00	355.63
604.00	321.86
605.00	279.31
606.00	265.83
607.00	234.52
608.00	229.88
609.00	226.83
610.00	244.99
611.00	271.68
612.00	261.39
613.00	239.51
614.00	239.84
615.00	240.69
616.00	250.21
617.00	273.95
618.00	244.85
619.00	244.13
620.00	232.66
621.00	245.34
622.00	236.31
623.00	230.60
624.00	243.24
625.00	243.52
626.00	245.85
627.00	242.70
628.00	243.84
629.00	250.25
630.00	245.87
631.00	251.95
632.00	229.46
633.00	227.61
634.00	224.96
635.00	222.07
636.00	227.48
637.00	224.22
638.00	234.77
639.00	234.94
640.00	237.38
641.00	246.39
642.00	263.54
643.00	239.47
644.00	234.13
645.00	228.13
646.00	237.95
647.00	239.00
648.00	231.15
649.00	233.58
650.00	227.19
651.00	224.05
652.00	224.76
653.00	229.04
654.00	230.72
655.00	225.35
656.00	335.00
657.00	310.55
658.00	249.98
659.00	226.59
660.00	227.13
661.00	228.35
662.00	214.78
663.00	219.23
664.00	248.65
665.00	244.09
666.00	227.89
667.00	226.96
668.00	242.09
669.00	233.95
670.00	226.21
671.00	215.29
672.00	214.93
673.00	223.98
674.00	217.18
675.00	258.45
676.00	261.91
677.00	231.79
678.00	219.07
679.00	217.67
680.00	220.54
681.00	222.46
682.00	221.44
683.00	216.71
684.00	220.58
685.00	224.67
686.00	216.23
687.00	241.65
688.00	237.16
689.00	236.31
690.00	221.81
691.00	218.05
692.00	214.70
693.00	218.71
694.00	233.94
695.00	232.02
696.00	264.01
697.00	400.54
698.00	262.85
699.00	235.37
700.00	223.23
701.00	220.51
702.00	224.42
703.00	253.25
704.00	244.04
705.00	224.60
706.00	220.31
707.00	334.26
708.00	261.48
709.00	229.30
710.00	213.76
711.00	221.68
712.00	217.31
713.00	214.94
714.00	217.83
715.00	231.20
716.00	222.21
717.00	215.10
718.00	215.86
719.00	213.99
720.00	213.90
721.00	220.95
722.00	220.42
723.00	213.69
724.00	220.84
725.00	236.15
726.00	216.57
727.00	230.74
728.00	248.79
729.00	220.40
730.00	218.32
731.00	218.72
732.00	214.11
733.00	215.14
734.00	211.98
735.00	219.29
736.00	228.98
737.00	244.87
738.00	290.24
739.00	380.69
740.00	263.27
741.00	224.28
742.00	219.95
743.00	214.06
744.00	223.02
745.00	222.49
746.00	217.63
747.00	206.88
748.00	211.82
749.00	213.87
750.00	275.84
751.00	662.67
752.00	526.02
753.00	316.30
754.00	235.56
755.00	210.52
756.00	213.29
757.00	213.20
758.00	214.02
759.00	219.41
760.00	216.48
761.00	213.83
762.00	215.90
763.00	244.29
764.00	1021.07
765.00	537.42
766.00	324.74
767.00	228.96
768.00	212.92
769.00	209.11
770.00	208.76
771.00	210.06
772.00	223.75
773.00	377.76
774.00	271.51
775.00	234.31
776.00	211.02
777.00	220.71
778.00	300.02
779.00	242.40
780.00	216.66
781.00	208.33
782.00	206.03
783.00	209.58
784.00	209.35
785.00	208.85
786.00	211.07
787.00	214.57
788.00	213.32
789.00	213.99
790.00	220.14
791.00	217.41
792.00	211.98
793.00	212.44
794.00	211.22
795.00	330.61
796.00	346.31
797.00	248.48
798.00	226.60
799.00	210.86
800.00	210.87
801.00	316.49
802.00	465.22
803.00	326.91
804.00	245.96
805.00	218.75
806.00	216.13
807.00	214.04
808.00	213.33
809.00	209.97
810.00	222.18
811.00	446.50
812.00	2024.26
813.00	1206.01
814.00	529.81
815.00	325.36
816.00	216.90
817.00	215.21
818.00	206.15
819.00	207.48
820.00	208.40
821.00	205.97
822.00	206.94
823.00	208.60
824.00	203.40
825.00	213.53
826.00	213.77
827.00	282.92
828.00	246.59
829.00	223.24
830.00	211.30
831.00	204.13
832.00	205.90
833.00	204.07
834.00	207.79
835.00	204.97
836.00	206.07
837.00	208.45
838.00	206.77
839.00	206.96
840.00	212.10
841.00	266.76
842.00	296.99
843.00	464.26
844.00	331.43
845.00	263.36
846.00	231.84
847.00	208.18
848.00	202.40
849.00	204.75
850.00	203.95
851.00	207.59
852.00	215.33
853.00	264.84
854.00	224.30
855.00	213.76
856.00	212.47
857.00	205.94
858.00	207.96
859.00	207.24
860.00	205.99
861.00	210.05
862.00	213.07
863.00	212.47
864.00	214.08
865.00	209.74
866.00	208.26
867.00	211.99
868.00	214.02
869.00	211.42
870.00	206.68
871.00	206.87
872.00	208.78
873.00	206.00
874.00	205.56
875.00	202.52
876.00	204.94
877.00	203.86
878.00	204.19
879.00	204.53
880.00	203.23
881.00	205.53
882.00	200.93
883.00	206.87
884.00	203.01
885.00	204.77
886.00	206.45
887.00	210.68
888.00	203.86
889.00	203.87
890.00	201.10
891.00	207.98
892.00	205.34
893.00	203.65
894.00	204.16
895.00	211.63
896.00	199.38
897.00	204.70
898.00	204.24
899.00	205.30
900.00	208.81
901.00	202.61
902.00	204.85
903.00	209.38
904.00	200.31
905.00	202.10
906.00	209.61
907.00	205.38
908.00	202.06
909.00	205.70
910.00	207.31
911.00	206.55
912.00	220.21
913.00	323.46
914.00	271.96
915.00	245.85
916.00	225.30
917.00	215.31
918.00	206.12
919.00	204.74
920.00	207.12
921.00	205.60
922.00	202.68
923.00	223.94
924.00	217.24
925.00	217.83
926.00	208.99
927.00	205.13
928.00	206.16
929.00	204.66
930.00	203.88
931.00	202.66
932.00	201.92
933.00	203.84
934.00	201.28
935.00	208.08
936.00	200.46
937.00	206.07
938.00	207.14
939.00	207.90
940.00	203.33
941.00	206.05
942.00	207.96
943.00	206.15
944.00	200.04
945.00	210.67
946.00	203.85
947.00	206.17
948.00	204.04
949.00	206.89
950.00	207.39
951.00	203.85
952.00	205.01
953.00	204.00
954.00	200.26
955.00	207.48
956.00	201.09
957.00	207.03
958.00	205.05
959.00	205.99
960.00	198.26
961.00	203.24
962.00	203.31
963.00	203.70
964.00	201.48
965.00	203.88
966.00	204.80
967.00	210.94
968.00	209.97
969.00	210.94
970.00	205.65
971.00	207.36
972.00	201.56
973.00	208.32
974.00	205.20
975.00	200.84
976.00	206.14
977.00	187.68
978.00	207.34
979.00	202.44
980.00	209.89
981.00	200.26
982.00	208.48
983.00	201.60
984.00	205.39
985.00	202.06
986.00	202.10
987.00	203.61
988.00	205.47
989.00	206.01
990.00	203.12
991.00	208.63
992.00	206.32
993.00	200.87
994.00	203.90
995.00	205.28
996.00	198.67
997.00	203.05
998.00	199.83
999.00	205.11
1000.00	203.94
>>>>>End Processed Spectral Data<<<<<
