SpectraSuite Data File
++++++++++++++++++++++++++++++++++++
Date: Tue Oct 18 14:35:50 CDT 2011
User: Helimak
Dark Spectrum Present: No
Reference Spectrum Present: No
Number of Sampled Component Spectra: 1
Spectrometers: USB2G37154
Integration Time (usec): 200000 (USB2G37154)
Spectra Averaged: 1 (USB2G37154)
Boxcar Smoothing: 0 (USB2G37154)
Correct for Electrical Dark: No (USB2G37154)
Strobe/Lamp Enabled: No (USB2G37154)
Correct for Detector Non-linearity: No (USB2G37154)
Correct for Stray Light: No (USB2G37154)
Number of Pixels in Processed Spectrum: 651
>>>>>Begin Processed Spectral Data<<<<<
350.00	200.39
351.00	203.72
352.00	201.43
353.00	206.78
354.00	204.42
355.00	202.03
356.00	206.97
357.00	204.36
358.00	209.16
359.00	207.97
360.00	208.66
361.00	206.21
362.00	206.39
363.00	207.39
364.00	210.55
365.00	209.97
366.00	207.30
367.00	205.83
368.00	209.69
369.00	210.03
370.00	210.99
371.00	211.62
372.00	217.23
373.00	213.81
374.00	211.70
375.00	214.98
376.00	214.58
377.00	215.51
378.00	224.73
379.00	222.52
380.00	225.57
381.00	224.38
382.00	229.44
383.00	233.47
384.00	238.94
385.00	241.00
386.00	237.00
387.00	241.48
388.00	232.70
389.00	228.32
390.00	229.49
391.00	235.51
392.00	248.83
393.00	244.41
394.00	244.16
395.00	229.91
396.00	232.96
397.00	232.76
398.00	229.15
399.00	240.65
400.00	268.37
401.00	291.43
402.00	273.14
403.00	298.57
404.00	304.49
405.00	271.97
406.00	302.06
407.00	316.91
408.00	269.05
409.00	280.99
410.00	281.44
411.00	249.96
412.00	268.99
413.00	259.36
414.00	255.71
415.00	329.74
416.00	301.10
417.00	278.32
418.00	308.43
419.00	459.91
420.00	370.24
421.00	282.79
422.00	335.05
423.00	296.54
424.00	279.51
425.00	407.50
426.00	502.99
427.00	498.24
428.00	356.18
429.00	348.78
430.00	320.90
431.00	286.87
432.00	357.35
433.00	456.80
434.00	1111.79
435.00	664.98
436.00	430.06
437.00	394.52
438.00	324.62
439.00	416.56
440.00	371.11
441.00	354.07
442.00	724.95
443.00	454.78
444.00	300.49
445.00	256.65
446.00	256.19
447.00	298.51
448.00	291.83
449.00	270.16
450.00	292.72
451.00	295.25
452.00	287.11
453.00	313.92
454.00	412.38
455.00	332.87
456.00	312.69
457.00	392.72
458.00	540.86
459.00	436.79
460.00	715.67
461.00	502.84
462.00	341.32
463.00	290.51
464.00	277.73
465.00	365.93
466.00	309.87
467.00	277.35
468.00	276.40
469.00	281.79
470.00	279.62
471.00	287.11
472.00	408.20
473.00	448.28
474.00	310.80
475.00	300.92
476.00	438.71
477.00	312.78
478.00	271.42
479.00	291.42
480.00	821.73
481.00	440.82
482.00	309.43
483.00	276.16
484.00	376.36
485.00	399.79
486.00	408.47
487.00	1055.75
488.00	845.13
489.00	452.59
490.00	335.26
491.00	303.30
492.00	304.89
493.00	336.41
494.00	287.13
495.00	289.63
496.00	404.41
497.00	327.17
498.00	285.99
499.00	281.61
500.00	375.54
501.00	451.85
502.00	335.07
503.00	293.43
504.00	314.82
505.00	357.28
506.00	374.42
507.00	350.05
508.00	336.35
509.00	308.95
510.00	292.15
511.00	283.03
512.00	285.07
513.00	301.93
514.00	415.56
515.00	325.67
516.00	313.10
517.00	288.27
518.00	326.32
519.00	301.31
520.00	274.03
521.00	277.93
522.00	287.80
523.00	269.75
524.00	274.39
525.00	293.21
526.00	285.89
527.00	270.60
528.00	273.14
529.00	266.40
530.00	260.16
531.00	264.75
532.00	284.88
533.00	287.71
534.00	289.70
535.00	297.03
536.00	300.65
537.00	290.50
538.00	287.19
539.00	285.49
540.00	281.85
541.00	279.51
542.00	290.10
543.00	279.84
544.00	294.00
545.00	313.45
546.00	304.81
547.00	312.85
548.00	292.29
549.00	358.10
550.00	342.60
551.00	309.93
552.00	293.29
553.00	284.90
554.00	278.96
555.00	320.84
556.00	334.49
557.00	303.85
558.00	272.01
559.00	272.97
560.00	308.07
561.00	281.44
562.00	265.76
563.00	257.13
564.00	276.22
565.00	304.72
566.00	283.89
567.00	280.75
568.00	293.03
569.00	281.77
570.00	281.16
571.00	279.75
572.00	257.67
573.00	269.30
574.00	282.68
575.00	260.59
576.00	257.23
577.00	264.61
578.00	262.34
579.00	256.31
580.00	264.41
581.00	254.11
582.00	247.28
583.00	263.50
584.00	256.93
585.00	247.76
586.00	262.06
587.00	261.99
588.00	288.95
589.00	307.62
590.00	266.76
591.00	277.87
592.00	264.06
593.00	276.35
594.00	259.03
595.00	244.23
596.00	243.80
597.00	248.96
598.00	260.54
599.00	266.03
600.00	266.19
601.00	271.11
602.00	280.17
603.00	459.19
604.00	396.05
605.00	323.62
606.00	294.07
607.00	257.81
608.00	239.69
609.00	243.84
610.00	268.66
611.00	323.48
612.00	309.97
613.00	259.35
614.00	253.43
615.00	262.54
616.00	254.77
617.00	343.81
618.00	280.52
619.00	260.71
620.00	251.07
621.00	268.65
622.00	260.52
623.00	240.30
624.00	269.74
625.00	276.43
626.00	257.16
627.00	252.27
628.00	251.83
629.00	257.66
630.00	271.35
631.00	267.72
632.00	237.66
633.00	237.52
634.00	233.01
635.00	235.95
636.00	239.24
637.00	240.65
638.00	244.01
639.00	242.00
640.00	250.88
641.00	258.95
642.00	295.49
643.00	250.50
644.00	247.29
645.00	244.08
646.00	248.05
647.00	238.97
648.00	245.89
649.00	241.11
650.00	232.12
651.00	231.88
652.00	231.79
653.00	229.55
654.00	243.74
655.00	239.56
656.00	409.21
657.00	386.35
658.00	285.98
659.00	235.33
660.00	238.77
661.00	233.13
662.00	221.41
663.00	219.83
664.00	281.87
665.00	272.20
666.00	240.35
667.00	237.31
668.00	252.74
669.00	251.06
670.00	234.20
671.00	224.73
672.00	226.30
673.00	226.99
674.00	227.30
675.00	287.20
676.00	303.04
677.00	240.44
678.00	228.55
679.00	221.88
680.00	219.66
681.00	221.90
682.00	227.13
683.00	218.01
684.00	223.48
685.00	226.29
686.00	218.49
687.00	263.71
688.00	263.36
689.00	253.05
690.00	224.88
691.00	228.19
692.00	220.69
693.00	227.68
694.00	264.07
695.00	245.03
696.00	289.02
697.00	527.19
698.00	307.04
699.00	248.62
700.00	234.61
701.00	224.47
702.00	222.61
703.00	281.29
704.00	267.91
705.00	236.40
706.00	229.18
707.00	409.61
708.00	299.71
709.00	241.47
710.00	218.59
711.00	227.13
712.00	224.51
713.00	221.58
714.00	214.83
715.00	242.64
716.00	234.71
717.00	223.08
718.00	214.42
719.00	209.03
720.00	216.03
721.00	225.55
722.00	223.67
723.00	221.02
724.00	222.26
725.00	237.88
726.00	219.40
727.00	237.58
728.00	272.45
729.00	234.15
730.00	220.37
731.00	219.60
732.00	219.40
733.00	214.48
734.00	216.53
735.00	225.13
736.00	248.20
737.00	261.37
738.00	355.27
739.00	495.41
740.00	310.62
741.00	242.35
742.00	221.01
743.00	222.09
744.00	232.08
745.00	225.31
746.00	213.85
747.00	216.28
748.00	211.04
749.00	221.69
750.00	309.09
751.00	989.53
752.00	746.06
753.00	408.54
754.00	256.97
755.00	220.71
756.00	213.41
757.00	213.52
758.00	218.14
759.00	219.05
760.00	219.73
761.00	209.76
762.00	220.68
763.00	264.82
764.00	1599.18
765.00	788.33
766.00	405.38
767.00	249.09
768.00	219.78
769.00	216.81
770.00	215.66
771.00	214.96
772.00	226.59
773.00	505.47
774.00	324.19
775.00	253.80
776.00	214.41
777.00	226.55
778.00	353.02
779.00	270.42
780.00	228.76
781.00	206.14
782.00	210.81
783.00	210.43
784.00	212.84
785.00	214.43
786.00	214.56
787.00	216.55
788.00	217.44
789.00	220.97
790.00	224.08
791.00	223.69
792.00	221.45
793.00	220.27
794.00	212.98
795.00	402.12
796.00	433.45
797.00	284.77
798.00	242.68
799.00	216.83
800.00	216.51
801.00	385.26
802.00	649.64
803.00	411.25
804.00	279.84
805.00	232.17
806.00	221.22
807.00	217.85
808.00	217.71
809.00	220.16
810.00	230.73
811.00	596.43
812.00	2984.54
813.00	1831.95
814.00	724.35
815.00	407.42
816.00	232.94
817.00	221.38
818.00	213.49
819.00	216.97
820.00	206.11
821.00	205.86
822.00	211.63
823.00	211.41
824.00	206.72
825.00	218.02
826.00	214.10
827.00	337.89
828.00	281.29
829.00	237.42
830.00	216.70
831.00	208.95
832.00	212.29
833.00	203.53
834.00	209.33
835.00	212.01
836.00	209.32
837.00	205.04
838.00	205.37
839.00	206.88
840.00	209.46
841.00	301.99
842.00	369.82
843.00	626.79
844.00	422.46
845.00	299.38
846.00	254.51
847.00	219.12
848.00	210.76
849.00	203.77
850.00	202.88
851.00	205.90
852.00	217.59
853.00	311.79
854.00	239.71
855.00	221.51
856.00	218.97
857.00	207.66
858.00	208.01
859.00	205.23
860.00	205.35
861.00	212.46
862.00	208.77
863.00	207.30
864.00	212.90
865.00	204.87
866.00	205.34
867.00	213.30
868.00	216.02
869.00	207.69
870.00	210.44
871.00	207.31
872.00	203.86
873.00	206.98
874.00	207.55
875.00	200.95
876.00	202.96
877.00	206.60
878.00	207.52
879.00	209.66
880.00	203.13
881.00	203.13
882.00	205.88
883.00	202.18
884.00	202.01
885.00	203.07
886.00	205.66
887.00	203.45
888.00	205.68
889.00	202.67
890.00	205.02
891.00	206.19
892.00	204.44
893.00	205.77
894.00	203.04
895.00	209.76
896.00	202.31
897.00	204.02
898.00	198.09
899.00	201.91
900.00	204.51
901.00	206.14
902.00	202.49
903.00	209.25
904.00	204.66
905.00	207.12
906.00	205.48
907.00	207.22
908.00	208.41
909.00	207.47
910.00	204.37
911.00	206.22
912.00	229.80
913.00	393.19
914.00	307.40
915.00	264.46
916.00	241.00
917.00	220.07
918.00	211.51
919.00	208.00
920.00	205.84
921.00	208.02
922.00	206.23
923.00	228.77
924.00	227.28
925.00	219.72
926.00	213.00
927.00	214.35
928.00	204.93
929.00	203.86
930.00	206.45
931.00	205.67
932.00	204.34
933.00	203.88
934.00	205.28
935.00	199.88
936.00	204.14
937.00	208.04
938.00	206.21
939.00	206.07
940.00	202.93
941.00	202.25
942.00	207.90
943.00	208.36
944.00	202.64
945.00	207.84
946.00	203.68
947.00	205.98
948.00	206.28
949.00	204.56
950.00	205.53
951.00	202.28
952.00	202.04
953.00	202.92
954.00	201.37
955.00	206.84
956.00	202.09
957.00	202.16
958.00	204.80
959.00	200.91
960.00	203.16
961.00	200.50
962.00	204.98
963.00	205.22
964.00	204.30
965.00	203.97
966.00	206.14
967.00	210.35
968.00	212.95
969.00	212.87
970.00	206.42
971.00	209.64
972.00	203.17
973.00	208.70
974.00	207.04
975.00	205.42
976.00	207.72
977.00	202.83
978.00	205.63
979.00	199.56
980.00	203.39
981.00	205.80
982.00	203.39
983.00	205.94
984.00	204.87
985.00	207.69
986.00	199.66
987.00	203.23
988.00	208.93
989.00	205.27
990.00	200.72
991.00	203.56
992.00	205.71
993.00	206.53
994.00	202.53
995.00	203.03
996.00	202.98
997.00	202.70
998.00	200.49
999.00	206.35
1000.00	202.81
>>>>>End Processed Spectral Data<<<<<
