SpectraSuite Data File
++++++++++++++++++++++++++++++++++++
Date: Tue Oct 18 14:47:31 CDT 2011
User: Helimak
Dark Spectrum Present: No
Reference Spectrum Present: No
Number of Sampled Component Spectra: 1
Spectrometers: USB2G37154
Integration Time (usec): 200000 (USB2G37154)
Spectra Averaged: 1 (USB2G37154)
Boxcar Smoothing: 0 (USB2G37154)
Correct for Electrical Dark: No (USB2G37154)
Strobe/Lamp Enabled: No (USB2G37154)
Correct for Detector Non-linearity: No (USB2G37154)
Correct for Stray Light: No (USB2G37154)
Number of Pixels in Processed Spectrum: 651
>>>>>Begin Processed Spectral Data<<<<<
350.00	203.17
351.00	201.46
352.00	203.32
353.00	206.04
354.00	204.71
355.00	205.89
356.00	207.42
357.00	206.41
358.00	212.01
359.00	211.20
360.00	211.22
361.00	210.75
362.00	210.56
363.00	211.72
364.00	217.32
365.00	208.01
366.00	209.34
367.00	210.95
368.00	209.81
369.00	209.32
370.00	217.06
371.00	211.16
372.00	214.33
373.00	202.73
374.00	209.85
375.00	218.06
376.00	218.26
377.00	223.11
378.00	233.35
379.00	229.91
380.00	236.34
381.00	230.86
382.00	230.38
383.00	235.84
384.00	243.99
385.00	244.50
386.00	250.03
387.00	247.45
388.00	242.39
389.00	236.56
390.00	238.64
391.00	241.61
392.00	249.72
393.00	247.23
394.00	256.35
395.00	244.10
396.00	248.96
397.00	242.03
398.00	235.52
399.00	251.67
400.00	277.51
401.00	295.85
402.00	292.49
403.00	316.03
404.00	319.51
405.00	287.09
406.00	317.07
407.00	340.80
408.00	289.59
409.00	284.64
410.00	298.35
411.00	258.02
412.00	270.86
413.00	267.19
414.00	257.82
415.00	358.01
416.00	311.52
417.00	283.89
418.00	326.28
419.00	502.45
420.00	396.33
421.00	296.27
422.00	345.84
423.00	310.93
424.00	291.69
425.00	433.04
426.00	541.72
427.00	540.42
428.00	392.15
429.00	357.93
430.00	342.29
431.00	300.85
432.00	388.65
433.00	496.69
434.00	1212.93
435.00	715.17
436.00	461.89
437.00	411.39
438.00	342.08
439.00	444.19
440.00	392.80
441.00	385.18
442.00	783.95
443.00	491.48
444.00	322.74
445.00	276.90
446.00	268.32
447.00	314.74
448.00	302.29
449.00	286.15
450.00	305.38
451.00	309.92
452.00	302.64
453.00	328.72
454.00	445.82
455.00	363.54
456.00	341.10
457.00	414.41
458.00	590.03
459.00	471.14
460.00	769.37
461.00	541.00
462.00	355.50
463.00	301.61
464.00	286.14
465.00	399.07
466.00	329.21
467.00	285.09
468.00	286.33
469.00	291.33
470.00	291.12
471.00	297.44
472.00	440.49
473.00	472.13
474.00	335.97
475.00	318.55
476.00	479.70
477.00	330.65
478.00	285.33
479.00	304.99
480.00	891.58
481.00	464.49
482.00	319.16
483.00	294.85
484.00	411.37
485.00	453.33
486.00	455.55
487.00	1155.96
488.00	918.88
489.00	492.62
490.00	363.27
491.00	328.49
492.00	324.50
493.00	359.91
494.00	312.91
495.00	307.71
496.00	431.82
497.00	342.63
498.00	297.43
499.00	295.62
500.00	403.13
501.00	477.94
502.00	348.06
503.00	306.47
504.00	338.13
505.00	380.33
506.00	412.94
507.00	386.08
508.00	357.75
509.00	335.21
510.00	308.12
511.00	306.03
512.00	301.75
513.00	323.93
514.00	442.17
515.00	348.09
516.00	335.27
517.00	308.50
518.00	342.68
519.00	317.79
520.00	287.22
521.00	293.93
522.00	303.26
523.00	281.74
524.00	286.85
525.00	309.26
526.00	295.44
527.00	287.75
528.00	283.52
529.00	279.32
530.00	282.32
531.00	280.32
532.00	295.22
533.00	308.59
534.00	311.59
535.00	320.93
536.00	314.48
537.00	309.72
538.00	305.78
539.00	301.58
540.00	303.98
541.00	300.27
542.00	307.19
543.00	303.62
544.00	306.67
545.00	332.79
546.00	318.84
547.00	339.54
548.00	313.81
549.00	381.82
550.00	361.58
551.00	330.91
552.00	313.09
553.00	309.59
554.00	296.91
555.00	335.66
556.00	353.94
557.00	329.07
558.00	288.64
559.00	282.18
560.00	323.41
561.00	296.16
562.00	279.97
563.00	275.94
564.00	283.25
565.00	316.47
566.00	294.94
567.00	296.78
568.00	308.20
569.00	300.84
570.00	293.20
571.00	289.14
572.00	270.44
573.00	277.13
574.00	293.70
575.00	266.29
576.00	271.53
577.00	282.43
578.00	275.91
579.00	274.32
580.00	273.53
581.00	261.40
582.00	255.66
583.00	268.73
584.00	267.68
585.00	257.62
586.00	280.85
587.00	271.12
588.00	305.33
589.00	324.87
590.00	282.43
591.00	287.48
592.00	273.05
593.00	286.32
594.00	272.00
595.00	256.63
596.00	257.05
597.00	262.56
598.00	267.17
599.00	277.46
600.00	281.91
601.00	286.02
602.00	288.27
603.00	478.36
604.00	416.36
605.00	332.47
606.00	318.24
607.00	266.81
608.00	248.09
609.00	249.99
610.00	285.28
611.00	339.04
612.00	320.46
613.00	269.53
614.00	265.75
615.00	277.19
616.00	275.53
617.00	348.81
618.00	286.05
619.00	271.75
620.00	258.85
621.00	286.09
622.00	271.97
623.00	250.31
624.00	277.16
625.00	285.23
626.00	271.03
627.00	258.43
628.00	265.19
629.00	270.77
630.00	278.37
631.00	279.67
632.00	250.49
633.00	246.67
634.00	235.46
635.00	240.13
636.00	243.12
637.00	252.33
638.00	242.97
639.00	250.53
640.00	257.17
641.00	274.34
642.00	310.67
643.00	262.61
644.00	246.07
645.00	248.88
646.00	258.12
647.00	254.15
648.00	251.80
649.00	252.19
650.00	238.29
651.00	234.12
652.00	233.09
653.00	236.65
654.00	246.73
655.00	248.48
656.00	473.44
657.00	418.11
658.00	309.98
659.00	246.64
660.00	241.80
661.00	235.37
662.00	227.58
663.00	225.01
664.00	291.99
665.00	281.27
666.00	243.77
667.00	239.57
668.00	260.70
669.00	264.70
670.00	238.09
671.00	228.76
672.00	232.27
673.00	230.00
674.00	233.37
675.00	295.92
676.00	319.91
677.00	252.85
678.00	227.83
679.00	227.08
680.00	227.72
681.00	227.97
682.00	229.20
683.00	223.45
684.00	231.00
685.00	225.11
686.00	223.00
687.00	270.41
688.00	263.51
689.00	253.46
690.00	233.67
691.00	224.58
692.00	227.46
693.00	233.51
694.00	270.25
695.00	253.92
696.00	304.02
697.00	549.29
698.00	329.08
699.00	253.09
700.00	229.16
701.00	229.50
702.00	227.83
703.00	288.98
704.00	279.68
705.00	241.65
706.00	233.87
707.00	439.68
708.00	311.09
709.00	252.38
710.00	222.68
711.00	229.52
712.00	223.31
713.00	223.10
714.00	222.81
715.00	252.49
716.00	243.33
717.00	223.17
718.00	215.99
719.00	214.80
720.00	218.97
721.00	226.19
722.00	226.02
723.00	222.52
724.00	226.64
725.00	243.22
726.00	221.09
727.00	249.83
728.00	281.01
729.00	237.63
730.00	223.43
731.00	225.63
732.00	223.15
733.00	216.42
734.00	216.74
735.00	226.14
736.00	257.51
737.00	275.09
738.00	377.64
739.00	531.97
740.00	308.52
741.00	250.07
742.00	225.99
743.00	225.96
744.00	239.12
745.00	232.09
746.00	209.32
747.00	217.44
748.00	220.55
749.00	230.11
750.00	336.70
751.00	1081.55
752.00	815.85
753.00	417.47
754.00	264.47
755.00	220.21
756.00	219.69
757.00	217.90
758.00	214.43
759.00	220.71
760.00	217.63
761.00	217.73
762.00	219.24
763.00	280.50
764.00	1779.23
765.00	859.54
766.00	424.54
767.00	250.13
768.00	218.92
769.00	212.72
770.00	213.21
771.00	215.24
772.00	236.25
773.00	546.77
774.00	332.30
775.00	261.32
776.00	215.52
777.00	240.59
778.00	408.04
779.00	287.09
780.00	242.02
781.00	211.49
782.00	210.92
783.00	212.82
784.00	210.76
785.00	213.99
786.00	217.16
787.00	219.48
788.00	218.10
789.00	218.96
790.00	226.49
791.00	221.78
792.00	219.90
793.00	218.31
794.00	221.47
795.00	445.25
796.00	455.24
797.00	292.25
798.00	244.21
799.00	217.99
800.00	217.87
801.00	415.58
802.00	691.40
803.00	439.88
804.00	290.63
805.00	232.83
806.00	221.12
807.00	215.00
808.00	215.67
809.00	221.33
810.00	236.18
811.00	659.16
812.00	3370.21
813.00	2002.92
814.00	778.68
815.00	414.67
816.00	232.66
817.00	215.80
818.00	211.40
819.00	213.17
820.00	209.32
821.00	208.80
822.00	209.24
823.00	212.64
824.00	207.68
825.00	213.67
826.00	213.29
827.00	361.03
828.00	289.35
829.00	238.55
830.00	219.51
831.00	210.15
832.00	208.70
833.00	208.00
834.00	211.14
835.00	204.62
836.00	206.73
837.00	208.06
838.00	208.60
839.00	208.87
840.00	213.21
841.00	321.02
842.00	393.01
843.00	694.36
844.00	448.90
845.00	307.90
846.00	259.56
847.00	219.82
848.00	210.53
849.00	206.55
850.00	210.15
851.00	206.30
852.00	223.43
853.00	320.63
854.00	238.97
855.00	219.17
856.00	218.43
857.00	208.65
858.00	208.74
859.00	204.27
860.00	204.77
861.00	208.76
862.00	206.63
863.00	206.55
864.00	212.22
865.00	208.87
866.00	210.67
867.00	214.79
868.00	217.04
869.00	213.74
870.00	208.06
871.00	210.06
872.00	208.79
873.00	208.89
874.00	201.37
875.00	205.09
876.00	209.10
877.00	207.09
878.00	203.93
879.00	207.43
880.00	203.94
881.00	208.45
882.00	208.71
883.00	207.42
884.00	205.00
885.00	208.40
886.00	208.30
887.00	208.66
888.00	203.86
889.00	202.00
890.00	206.12
891.00	209.04
892.00	207.66
893.00	207.81
894.00	205.02
895.00	208.69
896.00	201.03
897.00	202.78
898.00	205.90
899.00	199.63
900.00	207.57
901.00	202.68
902.00	201.77
903.00	208.85
904.00	205.40
905.00	204.14
906.00	207.43
907.00	206.36
908.00	203.47
909.00	198.53
910.00	207.98
911.00	209.41
912.00	237.11
913.00	420.03
914.00	335.93
915.00	277.22
916.00	252.10
917.00	220.98
918.00	208.61
919.00	212.98
920.00	204.87
921.00	208.51
922.00	210.50
923.00	246.97
924.00	235.84
925.00	217.17
926.00	218.00
927.00	210.51
928.00	206.50
929.00	204.22
930.00	204.00
931.00	203.78
932.00	204.45
933.00	201.02
934.00	202.01
935.00	201.49
936.00	206.99
937.00	201.92
938.00	204.20
939.00	207.55
940.00	204.99
941.00	204.14
942.00	203.94
943.00	205.30
944.00	204.36
945.00	211.41
946.00	200.88
947.00	206.05
948.00	202.39
949.00	201.71
950.00	200.05
951.00	205.21
952.00	201.11
953.00	204.69
954.00	207.13
955.00	202.43
956.00	202.37
957.00	208.19
958.00	206.57
959.00	204.97
960.00	204.26
961.00	200.31
962.00	202.57
963.00	207.03
964.00	202.52
965.00	205.51
966.00	204.30
967.00	214.94
968.00	209.02
969.00	209.92
970.00	206.38
971.00	210.54
972.00	202.10
973.00	208.52
974.00	203.75
975.00	200.87
976.00	204.53
977.00	202.60
978.00	203.85
979.00	202.63
980.00	205.18
981.00	204.37
982.00	202.72
983.00	205.91
984.00	203.09
985.00	201.94
986.00	200.80
987.00	202.14
988.00	202.58
989.00	201.82
990.00	202.81
991.00	205.13
992.00	202.46
993.00	201.58
994.00	203.06
995.00	205.28
996.00	204.63
997.00	209.67
998.00	201.90
999.00	204.49
1000.00	201.05
>>>>>End Processed Spectral Data<<<<<
