SpectraSuite Data File
++++++++++++++++++++++++++++++++++++
Date: Tue Oct 18 14:47:31 CDT 2011
User: Helimak
Dark Spectrum Present: No
Reference Spectrum Present: No
Number of Sampled Component Spectra: 1
Spectrometers: USB2G37154
Integration Time (usec): 200000 (USB2G37154)
Spectra Averaged: 1 (USB2G37154)
Boxcar Smoothing: 0 (USB2G37154)
Correct for Electrical Dark: No (USB2G37154)
Strobe/Lamp Enabled: No (USB2G37154)
Correct for Detector Non-linearity: No (USB2G37154)
Correct for Stray Light: No (USB2G37154)
Number of Pixels in Processed Spectrum: 651
>>>>>Begin Processed Spectral Data<<<<<
350.00	200.51
351.00	203.90
352.00	204.97
353.00	205.61
354.00	205.93
355.00	208.68
356.00	205.63
357.00	208.18
358.00	209.63
359.00	208.44
360.00	209.17
361.00	208.42
362.00	209.53
363.00	205.69
364.00	208.81
365.00	208.34
366.00	208.02
367.00	209.87
368.00	210.44
369.00	210.04
370.00	213.11
371.00	213.85
372.00	220.00
373.00	219.49
374.00	212.40
375.00	216.52
376.00	218.02
377.00	219.94
378.00	227.83
379.00	227.65
380.00	236.42
381.00	234.83
382.00	237.08
383.00	242.78
384.00	244.05
385.00	248.61
386.00	245.96
387.00	248.80
388.00	237.35
389.00	236.35
390.00	231.82
391.00	240.38
392.00	251.65
393.00	246.96
394.00	255.58
395.00	240.91
396.00	245.01
397.00	239.08
398.00	237.70
399.00	252.35
400.00	277.34
401.00	307.30
402.00	297.19
403.00	315.61
404.00	325.89
405.00	292.78
406.00	329.06
407.00	336.99
408.00	284.74
409.00	287.97
410.00	296.11
411.00	263.30
412.00	283.77
413.00	267.26
414.00	263.11
415.00	351.38
416.00	313.08
417.00	285.88
418.00	326.75
419.00	505.29
420.00	399.88
421.00	297.72
422.00	355.50
423.00	313.91
424.00	287.09
425.00	448.01
426.00	556.99
427.00	546.26
428.00	387.67
429.00	367.37
430.00	350.59
431.00	306.06
432.00	385.64
433.00	494.92
434.00	1222.25
435.00	726.41
436.00	463.76
437.00	426.77
438.00	351.60
439.00	447.61
440.00	397.71
441.00	380.62
442.00	782.89
443.00	487.08
444.00	322.74
445.00	270.02
446.00	270.29
447.00	307.15
448.00	305.66
449.00	291.06
450.00	308.65
451.00	312.73
452.00	306.34
453.00	330.79
454.00	446.76
455.00	366.63
456.00	337.73
457.00	420.62
458.00	597.69
459.00	466.65
460.00	786.00
461.00	545.11
462.00	361.22
463.00	304.23
464.00	287.69
465.00	397.12
466.00	334.85
467.00	289.09
468.00	287.37
469.00	299.49
470.00	299.90
471.00	301.69
472.00	439.16
473.00	471.07
474.00	344.27
475.00	311.61
476.00	472.74
477.00	329.99
478.00	280.10
479.00	305.51
480.00	888.09
481.00	470.72
482.00	325.90
483.00	289.16
484.00	409.03
485.00	446.93
486.00	466.13
487.00	1173.23
488.00	942.75
489.00	495.67
490.00	354.65
491.00	329.41
492.00	331.71
493.00	357.19
494.00	303.19
495.00	304.45
496.00	444.00
497.00	344.88
498.00	302.79
499.00	302.05
500.00	403.34
501.00	471.45
502.00	349.06
503.00	308.34
504.00	342.29
505.00	385.41
506.00	410.88
507.00	385.79
508.00	370.30
509.00	337.79
510.00	312.02
511.00	296.01
512.00	301.44
513.00	317.68
514.00	446.06
515.00	347.73
516.00	330.83
517.00	297.98
518.00	345.19
519.00	315.59
520.00	285.76
521.00	290.45
522.00	301.13
523.00	284.86
524.00	294.71
525.00	315.68
526.00	292.20
527.00	285.97
528.00	285.56
529.00	279.68
530.00	286.23
531.00	288.47
532.00	293.84
533.00	305.76
534.00	306.56
535.00	322.32
536.00	317.71
537.00	314.90
538.00	311.21
539.00	305.08
540.00	295.74
541.00	303.07
542.00	310.21
543.00	303.67
544.00	313.25
545.00	330.00
546.00	322.69
547.00	333.08
548.00	309.06
549.00	386.53
550.00	367.29
551.00	336.95
552.00	316.66
553.00	304.41
554.00	296.84
555.00	331.23
556.00	362.65
557.00	330.21
558.00	286.34
559.00	284.89
560.00	327.90
561.00	295.50
562.00	272.50
563.00	266.85
564.00	283.94
565.00	318.90
566.00	295.36
567.00	299.53
568.00	306.96
569.00	307.89
570.00	294.10
571.00	295.82
572.00	275.43
573.00	282.53
574.00	300.21
575.00	273.71
576.00	265.62
577.00	278.42
578.00	276.13
579.00	270.47
580.00	274.32
581.00	266.45
582.00	255.70
583.00	274.73
584.00	270.57
585.00	261.64
586.00	268.37
587.00	275.90
588.00	307.26
589.00	326.00
590.00	278.89
591.00	287.48
592.00	277.39
593.00	286.23
594.00	272.00
595.00	260.35
596.00	254.36
597.00	260.68
598.00	270.82
599.00	274.41
600.00	281.03
601.00	287.09
602.00	292.75
603.00	486.46
604.00	425.55
605.00	342.26
606.00	309.97
607.00	265.69
608.00	248.04
609.00	251.83
610.00	283.79
611.00	349.79
612.00	320.99
613.00	267.53
614.00	268.39
615.00	282.72
616.00	268.52
617.00	352.85
618.00	284.87
619.00	272.18
620.00	257.31
621.00	288.93
622.00	274.32
623.00	248.47
624.00	280.97
625.00	285.48
626.00	270.78
627.00	266.20
628.00	259.01
629.00	272.40
630.00	282.65
631.00	277.76
632.00	252.56
633.00	245.95
634.00	241.96
635.00	241.99
636.00	238.52
637.00	249.06
638.00	249.78
639.00	249.14
640.00	259.71
641.00	277.90
642.00	317.34
643.00	262.35
644.00	252.53
645.00	245.88
646.00	250.14
647.00	253.75
648.00	254.16
649.00	251.09
650.00	238.84
651.00	234.46
652.00	237.99
653.00	235.70
654.00	248.95
655.00	243.39
656.00	471.45
657.00	426.69
658.00	298.97
659.00	247.29
660.00	243.37
661.00	239.00
662.00	227.82
663.00	226.80
664.00	292.69
665.00	278.75
666.00	240.38
667.00	241.61
668.00	258.17
669.00	261.32
670.00	236.68
671.00	225.82
672.00	230.56
673.00	234.99
674.00	235.10
675.00	311.65
676.00	315.45
677.00	253.89
678.00	229.16
679.00	224.84
680.00	224.27
681.00	224.14
682.00	229.06
683.00	222.24
684.00	230.71
685.00	227.13
686.00	222.36
687.00	276.69
688.00	267.72
689.00	265.19
690.00	228.35
691.00	226.69
692.00	227.42
693.00	229.31
694.00	273.56
695.00	254.03
696.00	312.02
697.00	560.25
698.00	325.02
699.00	255.06
700.00	234.09
701.00	231.72
702.00	232.57
703.00	292.19
704.00	273.57
705.00	245.90
706.00	231.82
707.00	450.32
708.00	309.57
709.00	247.19
710.00	226.84
711.00	228.52
712.00	230.86
713.00	229.32
714.00	228.73
715.00	246.18
716.00	240.29
717.00	225.63
718.00	220.12
719.00	220.31
720.00	216.22
721.00	225.25
722.00	222.94
723.00	227.59
724.00	228.54
725.00	243.68
726.00	222.26
727.00	246.07
728.00	285.35
729.00	241.39
730.00	221.99
731.00	223.72
732.00	221.93
733.00	221.94
734.00	215.88
735.00	229.78
736.00	259.06
737.00	272.64
738.00	377.04
739.00	525.67
740.00	318.55
741.00	245.29
742.00	222.89
743.00	226.00
744.00	234.10
745.00	234.96
746.00	209.59
747.00	218.44
748.00	217.43
749.00	227.69
750.00	344.46
751.00	1103.90
752.00	827.46
753.00	425.85
754.00	264.73
755.00	222.02
756.00	218.90
757.00	215.07
758.00	221.27
759.00	218.80
760.00	223.64
761.00	218.37
762.00	224.24
763.00	287.64
764.00	1812.05
765.00	857.53
766.00	428.75
767.00	249.77
768.00	218.25
769.00	212.25
770.00	211.93
771.00	213.49
772.00	242.22
773.00	543.31
774.00	328.32
775.00	259.65
776.00	215.83
777.00	239.20
778.00	400.05
779.00	289.77
780.00	231.28
781.00	212.93
782.00	215.37
783.00	211.66
784.00	208.96
785.00	213.01
786.00	218.04
787.00	217.43
788.00	216.73
789.00	227.99
790.00	229.74
791.00	221.79
792.00	226.42
793.00	221.01
794.00	216.35
795.00	439.96
796.00	465.88
797.00	295.11
798.00	246.00
799.00	219.97
800.00	219.09
801.00	425.34
802.00	711.90
803.00	439.21
804.00	290.08
805.00	235.20
806.00	223.79
807.00	219.99
808.00	222.73
809.00	217.84
810.00	245.53
811.00	647.67
812.00	3400.56
813.00	2025.61
814.00	783.90
815.00	422.49
816.00	234.85
817.00	219.51
818.00	208.59
819.00	212.92
820.00	208.32
821.00	207.95
822.00	207.70
823.00	209.43
824.00	209.32
825.00	214.05
826.00	213.81
827.00	357.90
828.00	280.42
829.00	237.38
830.00	214.60
831.00	210.27
832.00	207.25
833.00	209.88
834.00	208.75
835.00	211.56
836.00	203.79
837.00	205.19
838.00	207.32
839.00	205.80
840.00	209.30
841.00	322.78
842.00	389.96
843.00	698.54
844.00	454.64
845.00	309.84
846.00	261.29
847.00	215.53
848.00	208.41
849.00	202.56
850.00	206.69
851.00	208.36
852.00	221.78
853.00	324.53
854.00	247.66
855.00	219.93
856.00	223.45
857.00	207.14
858.00	209.83
859.00	204.17
860.00	205.45
861.00	213.56
862.00	209.86
863.00	210.50
864.00	212.77
865.00	211.49
866.00	211.54
867.00	214.45
868.00	220.00
869.00	211.97
870.00	207.58
871.00	206.38
872.00	209.86
873.00	213.07
874.00	207.65
875.00	200.33
876.00	207.25
877.00	212.17
878.00	206.98
879.00	202.78
880.00	211.21
881.00	207.42
882.00	206.00
883.00	206.04
884.00	203.00
885.00	206.00
886.00	206.55
887.00	208.64
888.00	202.20
889.00	204.17
890.00	205.16
891.00	204.18
892.00	205.40
893.00	205.75
894.00	204.60
895.00	207.77
896.00	202.76
897.00	198.92
898.00	206.13
899.00	206.03
900.00	202.73
901.00	207.56
902.00	201.25
903.00	207.67
904.00	202.46
905.00	201.99
906.00	207.00
907.00	206.08
908.00	207.36
909.00	208.37
910.00	204.85
911.00	210.09
912.00	231.56
913.00	428.11
914.00	342.55
915.00	271.47
916.00	247.71
917.00	220.93
918.00	205.50
919.00	204.69
920.00	204.87
921.00	208.94
922.00	209.97
923.00	236.86
924.00	226.93
925.00	223.06
926.00	214.98
927.00	212.57
928.00	204.56
929.00	205.95
930.00	205.14
931.00	204.42
932.00	207.28
933.00	206.01
934.00	208.17
935.00	199.55
936.00	207.26
937.00	201.01
938.00	207.61
939.00	206.73
940.00	200.10
941.00	202.29
942.00	208.07
943.00	206.03
944.00	204.60
945.00	211.37
946.00	202.02
947.00	203.05
948.00	201.86
949.00	203.13
950.00	207.49
951.00	200.98
952.00	202.11
953.00	207.36
954.00	204.62
955.00	203.62
956.00	204.96
957.00	205.45
958.00	201.95
959.00	202.93
960.00	205.56
961.00	204.34
962.00	201.55
963.00	207.03
964.00	200.77
965.00	204.22
966.00	204.50
967.00	217.91
968.00	207.99
969.00	211.48
970.00	208.42
971.00	205.99
972.00	207.26
973.00	210.72
974.00	203.01
975.00	203.45
976.00	207.13
977.00	201.86
978.00	204.59
979.00	204.57
980.00	202.88
981.00	203.70
982.00	202.38
983.00	206.78
984.00	202.40
985.00	202.84
986.00	202.36
987.00	201.75
988.00	207.50
989.00	202.83
990.00	204.64
991.00	207.68
992.00	203.84
993.00	204.82
994.00	205.60
995.00	204.97
996.00	197.04
997.00	206.16
998.00	203.11
999.00	203.66
1000.00	201.78
>>>>>End Processed Spectral Data<<<<<
